idx,source_idx,split,y,class_name,record_id,subject_id,rms,std,ptp_p99_p01,mean_abs,low_amp_ratio,flatline_ratio,contact_loss_win_ratio,local_rms_cv,baseline_step,diff_abs_median,diff_abs_p95,detail_instability,lf_ratio,hf_ratio,qrs_band_ratio,spectral_entropy,qrs_peak_count,aggressive_peak_count,spurious_peak_density,qrs_prom_median,qrs_prom_p90,qrs_width_median,qrs_slope_median,qrs_count_low,qrs_count_high,qrs_count_deviation,periodicity,qrs_visibility,clipping_like_ratio,fatal_or_score,medium_detail_unreliable_score,sqi_iSQI,sqi_bSQI,sqi_pSQI,sqi_sSQI,sqi_kSQI,sqi_fSQI,sqi_basSQI,hjorth_activity,hjorth_mobility,hjorth_complexity,zero_crossing_rate,diff_zero_crossing_rate,sample_entropy_proxy,amplitude_entropy,higuchi_fd_proxy,template_corr,detector_count_std,detector_agreement,rr_count_detector_a,rr_count_detector_b,rr_count_detector_c,non_qrs_rms_ratio,non_qrs_diff_p95,band_0p3_1,band_1_5,band_5_15,band_15_30,band_30_45,wavelet_e0,wavelet_e1,wavelet_e2,wavelet_e3,wavelet_e4,pc1,pc2,pc3,pc4,pc5,pc6,pc7,pc8,pca_own_distance,pca_nearest_other_distance,pca_margin,knn_label_purity,nearest_other_class,is_clean_strict,is_clean_train_target,clean_tier,class_margin_percentile,class_centrality_percentile,ambiguous_type,pca_margin_rank,own_centrality_rank,boundary_confidence,original_region,region_confidence,clean_policy,clean_min_margin_sec,bw_score
27821,30966,val,2,bad,114001,114,0.1482220531673649,0.1481801025191604,0.9587196367979048,0.0798532508929609,0.2544,0.0208166533226581,0.0,1.1532259297694494,0.3173258951701532,0.0592566579580307,0.6511091947555524,1.0987948144784463,0.0766229715857806,0.3664444610410085,0.3602499267183883,0.9190686832345186,29.0,97.0,6.8,0.3073879555294264,2.930178467530937,0.0212546565937464,0.544281489721531,0.0,1.0,1.0,0.8318699118921544,0.0141969856991783,0.0152,1.0,0.0141969856991783,0.0,0.2499999999999375,0.6149648479513506,-0.4534476496305952,11.438104409292675,0.0008006405124099,0.7960832163548164,0.0219573498189869,1.788490213040168,1.0558761602127822,0.7814251401120896,0.7972756410256411,0.5954315529232068,0.5303788603049076,2.320019849142196,0.3198051783605006,1.247219128924647,0.4449944320643648,29.0,32.0,30.0,0.7051115509550665,0.526698887348175,0.0766229715857806,0.1648911402511536,0.3412693004732269,0.2290641044529587,0.1817469970359244,0.2051800993691384,0.0825376014037272,0.0863362786009465,0.071641629803392,0.5543042452904777,8.26425446330353,2.556165465181275,1.924410858058515,-0.1277071495991034,-1.0617904281061297,4.661005557791709,2.2460351384940247,2.897217766533695,7.618334070311484,10.68900579404745,3.070671723735966,0.8666666666666667,medium,False,False,ambiguous_boundary,0.0688741721854304,0.0677388836329233,bad_outlier,0.0688741721854304,0.0677388836329233,0.3478744875433617,near_bad_boundary,0.2713421002838221,margin_ge_5s_keep_outlier,5.0,2356.5621884518077
28586,31891,test,2,bad,122001,122,0.162984357009093,0.1629015823265752,0.7594215580821038,0.1287528522029519,0.1008,0.0072057646116893,0.0,0.0776862931037532,0.5470173917053582,0.1538105010986328,0.4308948963880538,0.2801465864135497,0.0519770262705272,0.4830971870893996,0.3304558756786029,0.9245221532876082,27.0,90.0,6.3,2.3159563631199407,2.965009898997532,0.0118845843994786,2.8920174148667863,0.0,1.0,1.0,0.8200875744387733,0.1048385463024976,0.0152,1.0,0.1048385463024976,0.0,0.4999999999999833,0.3711860866573125,-0.1228604133349599,3.0046505232880603,0.0008006405124099,0.9540238353315128,0.0265369322664704,1.3712468379836602,1.2618301215721253,0.4819855884707766,0.6826923076923077,0.890332025110814,0.8885412551345271,1.9847055736197168,0.2266312072681512,1.632993161855452,0.3797958971132712,27.0,29.0,25.0,0.9273931252035984,0.4312395706772801,0.0519770262705272,0.1095711746421795,0.254592488754195,0.3121272415573506,0.2702796561563261,0.305927952260952,0.1666153897687104,0.1941936763563869,0.1626354184190788,0.1706274953703737,8.646668663492223,-0.1527565547324804,0.8069579523060951,-1.3308391069143244,-0.2744740645489357,0.8209619298519655,3.310526932761184,1.6751173762211284,5.055326523942725,9.922911538611697,4.86758501466897,0.9666666666666668,medium,False,False,ambiguous_boundary,0.0711447492904446,0.0811731315042573,bad_outlier,0.0711447492904446,0.0811731315042573,0.3865830968148849,near_bad_boundary,0.3015348155156102,margin_ge_5s_keep_outlier,5.0,1052.332884030378
28589,31894,test,2,bad,122001,122,0.1593103200470553,0.1592932728988361,0.7063770997524261,0.1276331463203183,0.0944,0.010408326661329,0.0,0.0832101283820602,0.3990813353555269,0.1514418125152588,0.4343924537301062,0.286837840773039,0.0484225718868365,0.4977184479949553,0.3203803619066247,0.9260396624184428,28.0,93.0,6.5,2.239454198660121,3.0625280564028805,0.0117840104466677,2.732666784601684,0.0,1.0,1.0,0.8447326746301481,0.0956636195520053,0.0152,1.0,0.0956636195520053,0.0,0.4062499999999873,0.291195457121554,0.0089060587171133,2.896368743609356,0.0008006405124099,0.9584072812607028,0.0253743536049577,1.4055974720061446,1.2368883193155569,0.4947958366693354,0.6826923076923077,0.9000975320209551,0.873232292215138,1.99532865394702,0.2045297922057408,0.4714045207910317,0.6796227589829592,28.0,28.0,27.0,0.949207558920358,0.4256343454122542,0.0484225718868365,0.086961071202585,0.2375741887664579,0.3412926414951189,0.2843797811804828,0.2252261140507972,0.1888903791361695,0.2086927295234738,0.1785174562832039,0.1986732429145678,9.403102349432048,-0.6484834695284095,0.2150142550827367,-1.7656413555098518,-0.9779659734388434,1.7254859218564598,3.308542832130659,1.481460545120606,5.18067698789829,10.825629447863824,5.644952459965535,0.9666666666666668,medium,False,False,ambiguous_boundary,0.0868495742667928,0.0753074739829706,bad_outlier,0.0868495742667928,0.0753074739829706,0.3924771365499842,near_bad_boundary,0.3061321665089876,margin_ge_5s_keep_outlier,5.0,964.9549676628243
28597,31902,test,2,bad,122001,122,0.1586563403407993,0.1585876014324471,0.7362431132793426,0.1251568887110526,0.0992,0.0112089671737389,0.0,0.0814881354881002,0.3938785047447515,0.1497559249401092,0.4313110873103142,0.2880093449937761,0.0367935429672777,0.522347279879936,0.2863430790050013,0.9342686051617192,26.0,95.0,6.9,2.235727509777364,2.775244999443479,0.0113714955071233,2.4676926152600904,0.0,1.0,1.0,0.8210910660205226,0.0810360884766879,0.0152,1.0,0.0810360884766879,0.0,0.4285714285714133,0.2910817573871402,0.0261161108983341,3.01399989277066,0.0016012810248198,0.956227893686178,0.0251500341563447,1.391389679809407,1.2443115062507053,0.488390712570056,0.6770833333333334,0.8945150138834743,0.8867016263912879,2.002431421166939,0.2472891580244853,0.9428090415820634,0.5147186257614297,26.0,26.0,28.0,0.9633551315909188,0.4322269894182682,0.0367935429672777,0.1232297982346309,0.2258089434137183,0.3369705069629709,0.2767482615381584,0.249717876950405,0.2086977979417083,0.1752197148613733,0.1808855301296028,0.1854790044203641,9.082432866896012,-0.5224516488686455,0.4223974362574492,-1.5568752585683907,-0.901700852784792,1.50234500661574,3.3408332342613942,1.7622839947975482,5.222396278868809,10.500038152682569,5.277641873813758,0.9666666666666668,medium,False,False,ambiguous_boundary,0.0792809839167455,0.0739829706717123,bad_outlier,0.0792809839167455,0.0739829706717123,0.3888063702302113,near_bad_boundary,0.3032689687795648,margin_ge_5s_keep_outlier,5.0,812.8333352815152
28537,31842,test,2,bad,122001,122,0.1655211915674886,0.1655211895530585,0.7810327404737472,0.1305773824907373,0.1008,0.0112089671737389,0.0,0.0670567668218065,0.4493795385667096,0.1597938537597656,0.4606089547276493,0.2882519665586969,0.0390722993444114,0.4840040637370736,0.3238563253237544,0.9257844139136132,28.0,95.0,6.7,2.4110863639172604,2.9688125641011576,0.0116603232915258,3.0263041427842508,0.0,1.0,1.0,0.8166643481090246,0.1014085155657735,0.0152,1.0,0.1014085155657735,0.0,0.4999999999999808,0.3286236453238446,0.0487055506431514,3.215057385224298,0.0,0.965445504071842,0.0273972708806358,1.4119101738387458,1.2373398856418298,0.5116092874299439,0.6786858974358975,0.9044163644290344,0.8658482373831735,1.984554375026874,0.2151474730470384,0.4714045207910317,0.6796227589829592,28.0,27.0,28.0,0.9477029301526234,0.4374245218932628,0.0390722993444114,0.1039139342278378,0.2666111640864189,0.295387492378251,0.2925052905070781,0.2765031048370486,0.168916944220678,0.2023542256570894,0.1589776497206859,0.1932480061374329,9.17819405795274,-0.8374816083361569,0.3811635011225917,-1.942393024753256,-0.8249023344301583,1.503988445787998,3.009794670239065,1.440635616710261,5.07636500275568,10.503372277279938,5.427007274524258,0.9666666666666668,medium,False,False,ambiguous_boundary,0.081929990539262,0.0792809839167455,bad_outlier,0.081929990539262,0.0792809839167455,0.3910580258593504,near_bad_boundary,0.3050252601702933,margin_ge_5s_keep_outlier,5.0,792.6458211610807
28559,31864,test,2,bad,122001,122,0.1644736181980503,0.1644655029421491,0.7735378262400627,0.1308877687632862,0.1016,0.0072057646116893,0.0,0.0557385149084657,0.2221387742751894,0.1600153166800737,0.443035903573036,0.2768709177832814,0.0359319154779882,0.4900461976765533,0.3134639715560456,0.928051569614788,28.0,92.0,6.4,2.2778353399912983,2.788445316270636,0.011679188342196,2.555167089649996,0.0,1.0,1.0,0.8591241324715174,0.0964890962465388,0.0152,1.0,0.0964890962465388,0.0,0.6086956521738867,0.2877214706210842,-0.0221545804257598,3.020767424033042,0.0,0.956340393099718,0.0270489083687041,1.4029567143935018,1.2390506709701492,0.5052041633306645,0.6826923076923077,0.9169976247084368,0.8917402460307161,2.0011670037108016,0.1684137805254193,1.699673171197595,0.3704152082810796,28.0,29.0,25.0,0.9974695700418976,0.4534970059990877,0.0359319154779882,0.1073119954956244,0.241145536693469,0.3264074791956684,0.2872608775795048,0.2776578223803596,0.17138079149647,0.1895759782507677,0.1719568530604113,0.189428484000474,9.235195881501904,-0.5081549626463567,0.868260909163884,-1.0853373085381246,-0.3293581971737435,0.9858946888101944,3.3812696315470454,1.4943546083746302,4.884280282779222,10.5026628478905,5.618382565111278,0.9666666666666668,medium,False,False,ambiguous_boundary,0.086092715231788,0.0862819299905392,bad_outlier,0.086092715231788,0.0862819299905392,0.3943314411857458,near_bad_boundary,0.3075785241248818,margin_ge_5s_keep_outlier,5.0,787.0851832437199
28551,31856,test,2,bad,122001,122,0.1636002146287902,0.1635465652699981,0.762816510796547,0.1309972154909162,0.0912,0.0072057646116893,0.0,0.0562519510104371,0.3301937149409398,0.1504229120910167,0.4392141416668889,0.2919861784104503,0.0403969846592456,0.4969111159932978,0.297517950255356,0.9360321042955836,26.0,94.0,6.8,2.424301574255662,2.9842595486744496,0.011093616545907,2.8379945042023014,0.0,1.0,1.0,0.8304036086714572,0.0924709275863304,0.0152,1.0,0.0924709275863304,0.0,0.4642857142856977,0.2991094256223799,-0.0818614416784504,2.943366270936781,0.0,0.9682226469145392,0.0267474857406825,1.388323557791691,1.2494906504782677,0.4979983987189751,0.6770833333333334,0.8837801493371183,0.8828422213266308,1.994916031048308,0.188356584864808,0.4714045207910317,0.6796227589829592,26.0,25.0,26.0,0.8790997121278061,0.4069931909441947,0.0403969846592456,0.122161509157094,0.2352031335289379,0.306895058659345,0.2943025809574917,0.2850041713797605,0.2008527529762644,0.1688067798361649,0.1658536672742303,0.1794825597401724,8.903884554514745,-0.7937291484993683,0.0719592557356816,-1.9652362719237924,-1.070079540541098,1.5262162599267377,2.99852855090233,1.381482205059399,5.103970379351684,10.298204719781904,5.194234340430222,0.9666666666666668,medium,False,False,ambiguous_boundary,0.0770104068117313,0.0785241248817407,bad_outlier,0.0770104068117313,0.0785241248817407,0.3886928413749606,near_bad_boundary,0.3031804162724693,margin_ge_5s_keep_outlier,5.0,785.3586452533991
28491,31796,test,2,bad,122001,122,0.1642190746268003,0.1640506569511833,0.7520783922076225,0.1308116156087861,0.0976,0.0088070456365092,0.0,0.0380441941276192,0.2666035143306837,0.162726454436779,0.4452420644462107,0.2736138009187756,0.0362638768972845,0.4609977259315648,0.3629611527843461,0.931303597242156,26.0,95.0,6.9,2.3460990144573324,3.0781736872323404,0.010203546020577,2.73089302699138,0.0,1.0,1.0,0.8258279019454674,0.1077902282067913,0.0152,1.0,0.1077902282067913,0.0,0.4642857142856977,0.3317032682316236,-0.0556853400414358,2.931567919424925,0.0008006405124099,0.9616426196654202,0.0269126247651018,1.4219739677175958,1.2344076571534677,0.5092073658927142,0.7027243589743589,0.9049686068573388,0.8852214685238472,1.9900692069760928,0.151017445453202,0.9428090415820634,0.5147186257614297,26.0,24.0,26.0,0.934397546676812,0.4189111173152921,0.0362638768972845,0.1048605521241501,0.277636151246212,0.3157746199114962,0.2648503303055199,0.2161879295008149,0.1911410674117261,0.230911327508333,0.1608644620863517,0.2008951409267619,8.944142175851022,-0.7887810276070548,0.3034558672813645,-1.4624949175726536,-0.5785510587521125,1.0887651855039095,2.581450312429637,1.2020299862331951,4.380319874322566,10.08255441533296,5.702234541010393,0.9666666666666668,medium,False,False,ambiguous_boundary,0.0879848628192999,0.0913907284768212,bad_outlier,0.0879848628192999,0.0913907284768212,0.3962046672973826,near_bad_boundary,0.3090396404919584,margin_ge_5s_keep_outlier,5.0,762.7043889918612
