pair,class,record_id,source_idx,time_s,z,sqi_distance,l_detail,conformer_medium_prob,iSQI,bSQI,pSQI,sSQI,kSQI,fSQI,basSQI
1,good,butv116_00038,72,0.0,0.21705769793488927,0.41753567702678984,0.6796475920381352,0.0051429597660899,0.9999999999999286,0.9285714285713622,0.6415245684517936,0.9495584644591077,0.7241872527981694,0.0032025620496397116,0.9912450700816194
1,good,butv116_00038,72,0.008,-0.07127940877409814,0.41753567702678984,0.6796475920381352,0.0051429597660899,0.9999999999999286,0.9285714285713622,0.6415245684517936,0.9495584644591077,0.7241872527981694,0.0032025620496397116,0.9912450700816194
1,good,butv116_00038,72,0.016,0.017940332563550935,0.41753567702678984,0.6796475920381352,0.0051429597660899,0.9999999999999286,0.9285714285713622,0.6415245684517936,0.9495584644591077,0.7241872527981694,0.0032025620496397116,0.9912450700816194
1,good,butv116_00038,72,0.024,-0.008105471343194729,0.41753567702678984,0.6796475920381352,0.0051429597660899,0.9999999999999286,0.9285714285713622,0.6415245684517936,0.9495584644591077,0.7241872527981694,0.0032025620496397116,0.9912450700816194
1,good,butv116_00038,72,0.032,-0.004159380344897313,0.41753567702678984,0.6796475920381352,0.0051429597660899,0.9999999999999286,0.9285714285713622,0.6415245684517936,0.9495584644591077,0.7241872527981694,0.0032025620496397116,0.9912450700816194
1,good,butv116_00038,72,0.04,-0.028906999555205266,0.41753567702678984,0.6796475920381352,0.0051429597660899,0.9999999999999286,0.9285714285713622,0.6415245684517936,0.9495584644591077,0.7241872527981694,0.0032025620496397116,0.9912450700816194
1,good,butv116_00038,72,0.048,-0.004988175911077965,0.41753567702678984,0.6796475920381352,0.0051429597660899,0.9999999999999286,0.9285714285713622,0.6415245684517936,0.9495584644591077,0.7241872527981694,0.0032025620496397116,0.9912450700816194
1,good,butv116_00038,72,0.056,0.027719970040100995,0.41753567702678984,0.6796475920381352,0.0051429597660899,0.9999999999999286,0.9285714285713622,0.6415245684517936,0.9495584644591077,0.7241872527981694,0.0032025620496397116,0.9912450700816194
1,good,butv116_00038,72,0.064,0.030168346977174604,0.41753567702678984,0.6796475920381352,0.0051429597660899,0.9999999999999286,0.9285714285713622,0.6415245684517936,0.9495584644591077,0.7241872527981694,0.0032025620496397116,0.9912450700816194
1,good,butv116_00038,72,0.072,-0.010715720636300522,0.41753567702678984,0.6796475920381352,0.0051429597660899,0.9999999999999286,0.9285714285713622,0.6415245684517936,0.9495584644591077,0.7241872527981694,0.0032025620496397116,0.9912450700816194
1,good,butv116_00038,72,0.08,0.010909040502932224,0.41753567702678984,0.6796475920381352,0.0051429597660899,0.9999999999999286,0.9285714285713622,0.6415245684517936,0.9495584644591077,0.7241872527981694,0.0032025620496397116,0.9912450700816194
1,good,butv116_00038,72,0.088,-0.01228318213714762,0.41753567702678984,0.6796475920381352,0.0051429597660899,0.9999999999999286,0.9285714285713622,0.6415245684517936,0.9495584644591077,0.7241872527981694,0.0032025620496397116,0.9912450700816194
1,good,butv116_00038,72,0.096,-0.0302814939421351,0.41753567702678984,0.6796475920381352,0.0051429597660899,0.9999999999999286,0.9285714285713622,0.6415245684517936,0.9495584644591077,0.7241872527981694,0.0032025620496397116,0.9912450700816194
1,good,butv116_00038,72,0.104,0.01916613336583462,0.41753567702678984,0.6796475920381352,0.0051429597660899,0.9999999999999286,0.9285714285713622,0.6415245684517936,0.9495584644591077,0.7241872527981694,0.0032025620496397116,0.9912450700816194
1,good,butv116_00038,72,0.112,-0.02411302189127746,0.41753567702678984,0.6796475920381352,0.0051429597660899,0.9999999999999286,0.9285714285713622,0.6415245684517936,0.9495584644591077,0.7241872527981694,0.0032025620496397116,0.9912450700816194
1,good,butv116_00038,72,0.12,-0.013390741630058833,0.41753567702678984,0.6796475920381352,0.0051429597660899,0.9999999999999286,0.9285714285713622,0.6415245684517936,0.9495584644591077,0.7241872527981694,0.0032025620496397116,0.9912450700816194
1,good,butv116_00038,72,0.128,-0.06799462451500082,0.41753567702678984,0.6796475920381352,0.0051429597660899,0.9999999999999286,0.9285714285713622,0.6415245684517936,0.9495584644591077,0.7241872527981694,0.0032025620496397116,0.9912450700816194
1,good,butv116_00038,72,0.136,-0.11437619700506428,0.41753567702678984,0.6796475920381352,0.0051429597660899,0.9999999999999286,0.9285714285713622,0.6415245684517936,0.9495584644591077,0.7241872527981694,0.0032025620496397116,0.9912450700816194
1,good,butv116_00038,72,0.144,-0.018044460263078262,0.41753567702678984,0.6796475920381352,0.0051429597660899,0.9999999999999286,0.9285714285713622,0.6415245684517936,0.9495584644591077,0.7241872527981694,0.0032025620496397116,0.9912450700816194
1,good,butv116_00038,72,0.152,-0.06500511616081063,0.41753567702678984,0.6796475920381352,0.0051429597660899,0.9999999999999286,0.9285714285713622,0.6415245684517936,0.9495584644591077,0.7241872527981694,0.0032025620496397116,0.9912450700816194
1,good,butv116_00038,72,0.16,-0.043232654921623766,0.41753567702678984,0.6796475920381352,0.0051429597660899,0.9999999999999286,0.9285714285713622,0.6415245684517936,0.9495584644591077,0.7241872527981694,0.0032025620496397116,0.9912450700816194
1,good,butv116_00038,72,0.168,0.10545768404942202,0.41753567702678984,0.6796475920381352,0.0051429597660899,0.9999999999999286,0.9285714285713622,0.6415245684517936,0.9495584644591077,0.7241872527981694,0.0032025620496397116,0.9912450700816194
1,good,butv116_00038,72,0.176,0.21935642018935037,0.41753567702678984,0.6796475920381352,0.0051429597660899,0.9999999999999286,0.9285714285713622,0.6415245684517936,0.9495584644591077,0.7241872527981694,0.0032025620496397116,0.9912450700816194
1,good,butv116_00038,72,0.184,0.2756079681129025,0.41753567702678984,0.6796475920381352,0.0051429597660899,0.9999999999999286,0.9285714285713622,0.6415245684517936,0.9495584644591077,0.7241872527981694,0.0032025620496397116,0.9912450700816194
1,good,butv116_00038,72,0.192,0.35591038167400446,0.41753567702678984,0.6796475920381352,0.0051429597660899,0.9999999999999286,0.9285714285713622,0.6415245684517936,0.9495584644591077,0.7241872527981694,0.0032025620496397116,0.9912450700816194
1,good,butv116_00038,72,0.2,0.5052862513420561,0.41753567702678984,0.6796475920381352,0.0051429597660899,0.9999999999999286,0.9285714285713622,0.6415245684517936,0.9495584644591077,0.7241872527981694,0.0032025620496397116,0.9912450700816194
1,good,butv116_00038,72,0.208,0.5314576947366915,0.41753567702678984,0.6796475920381352,0.0051429597660899,0.9999999999999286,0.9285714285713622,0.6415245684517936,0.9495584644591077,0.7241872527981694,0.0032025620496397116,0.9912450700816194
1,good,butv116_00038,72,0.216,0.5253087405022768,0.41753567702678984,0.6796475920381352,0.0051429597660899,0.9999999999999286,0.9285714285713622,0.6415245684517936,0.9495584644591077,0.7241872527981694,0.0032025620496397116,0.9912450700816194
1,good,butv116_00038,72,0.224,0.5754271739262045,0.41753567702678984,0.6796475920381352,0.0051429597660899,0.9999999999999286,0.9285714285713622,0.6415245684517936,0.9495584644591077,0.7241872527981694,0.0032025620496397116,0.9912450700816194
1,good,butv116_00038,72,0.232,0.4201860927530488,0.41753567702678984,0.6796475920381352,0.0051429597660899,0.9999999999999286,0.9285714285713622,0.6415245684517936,0.9495584644591077,0.7241872527981694,0.0032025620496397116,0.9912450700816194
1,good,butv116_00038,72,0.24,0.032675583724495486,0.41753567702678984,0.6796475920381352,0.0051429597660899,0.9999999999999286,0.9285714285713622,0.6415245684517936,0.9495584644591077,0.7241872527981694,0.0032025620496397116,0.9912450700816194
1,good,butv116_00038,72,0.248,-0.11797448476838744,0.41753567702678984,0.6796475920381352,0.0051429597660899,0.9999999999999286,0.9285714285713622,0.6415245684517936,0.9495584644591077,0.7241872527981694,0.0032025620496397116,0.9912450700816194
1,good,butv116_00038,72,0.256,-0.18357472539454636,0.41753567702678984,0.6796475920381352,0.0051429597660899,0.9999999999999286,0.9285714285713622,0.6415245684517936,0.9495584644591077,0.7241872527981694,0.0032025620496397116,0.9912450700816194
1,good,butv116_00038,72,0.264,-0.23495037999653312,0.41753567702678984,0.6796475920381352,0.0051429597660899,0.9999999999999286,0.9285714285713622,0.6415245684517936,0.9495584644591077,0.7241872527981694,0.0032025620496397116,0.9912450700816194
1,good,butv116_00038,72,0.272,-0.24960668632543018,0.41753567702678984,0.6796475920381352,0.0051429597660899,0.9999999999999286,0.9285714285713622,0.6415245684517936,0.9495584644591077,0.7241872527981694,0.0032025620496397116,0.9912450700816194
1,good,butv116_00038,72,0.28,-0.279285279486795,0.41753567702678984,0.6796475920381352,0.0051429597660899,0.9999999999999286,0.9285714285713622,0.6415245684517936,0.9495584644591077,0.7241872527981694,0.0032025620496397116,0.9912450700816194
1,good,butv116_00038,72,0.288,-0.26706000131382973,0.41753567702678984,0.6796475920381352,0.0051429597660899,0.9999999999999286,0.9285714285713622,0.6415245684517936,0.9495584644591077,0.7241872527981694,0.0032025620496397116,0.9912450700816194
1,good,butv116_00038,72,0.296,-0.27765144795661906,0.41753567702678984,0.6796475920381352,0.0051429597660899,0.9999999999999286,0.9285714285713622,0.6415245684517936,0.9495584644591077,0.7241872527981694,0.0032025620496397116,0.9912450700816194
1,good,butv116_00038,72,0.304,-0.236415478436742,0.41753567702678984,0.6796475920381352,0.0051429597660899,0.9999999999999286,0.9285714285713622,0.6415245684517936,0.9495584644591077,0.7241872527981694,0.0032025620496397116,0.9912450700816194
1,good,butv116_00038,72,0.312,-0.20323554761292528,0.41753567702678984,0.6796475920381352,0.0051429597660899,0.9999999999999286,0.9285714285713622,0.6415245684517936,0.9495584644591077,0.7241872527981694,0.0032025620496397116,0.9912450700816194
1,good,butv116_00038,72,0.32,-0.37191940975703003,0.41753567702678984,0.6796475920381352,0.0051429597660899,0.9999999999999286,0.9285714285713622,0.6415245684517936,0.9495584644591077,0.7241872527981694,0.0032025620496397116,0.9912450700816194
1,good,butv116_00038,72,0.328,-0.3981872360471794,0.41753567702678984,0.6796475920381352,0.0051429597660899,0.9999999999999286,0.9285714285713622,0.6415245684517936,0.9495584644591077,0.7241872527981694,0.0032025620496397116,0.9912450700816194
1,good,butv116_00038,72,0.336,0.7483193777041853,0.41753567702678984,0.6796475920381352,0.0051429597660899,0.9999999999999286,0.9285714285713622,0.6415245684517936,0.9495584644591077,0.7241872527981694,0.0032025620496397116,0.9912450700816194
1,good,butv116_00038,72,0.344,2.5,0.41753567702678984,0.6796475920381352,0.0051429597660899,0.9999999999999286,0.9285714285713622,0.6415245684517936,0.9495584644591077,0.7241872527981694,0.0032025620496397116,0.9912450700816194
1,good,butv116_00038,72,0.352,2.5,0.41753567702678984,0.6796475920381352,0.0051429597660899,0.9999999999999286,0.9285714285713622,0.6415245684517936,0.9495584644591077,0.7241872527981694,0.0032025620496397116,0.9912450700816194
1,good,butv116_00038,72,0.36,2.5,0.41753567702678984,0.6796475920381352,0.0051429597660899,0.9999999999999286,0.9285714285713622,0.6415245684517936,0.9495584644591077,0.7241872527981694,0.0032025620496397116,0.9912450700816194
1,good,butv116_00038,72,0.368,2.292477673604959,0.41753567702678984,0.6796475920381352,0.0051429597660899,0.9999999999999286,0.9285714285713622,0.6415245684517936,0.9495584644591077,0.7241872527981694,0.0032025620496397116,0.9912450700816194
1,good,butv116_00038,72,0.376,-0.47362403600849856,0.41753567702678984,0.6796475920381352,0.0051429597660899,0.9999999999999286,0.9285714285713622,0.6415245684517936,0.9495584644591077,0.7241872527981694,0.0032025620496397116,0.9912450700816194
1,good,butv116_00038,72,0.384,0.17639513801847523,0.41753567702678984,0.6796475920381352,0.0051429597660899,0.9999999999999286,0.9285714285713622,0.6415245684517936,0.9495584644591077,0.7241872527981694,0.0032025620496397116,0.9912450700816194
1,good,butv116_00038,72,0.392,-0.12010398375541224,0.41753567702678984,0.6796475920381352,0.0051429597660899,0.9999999999999286,0.9285714285713622,0.6415245684517936,0.9495584644591077,0.7241872527981694,0.0032025620496397116,0.9912450700816194
1,good,butv116_00038,72,0.4,-0.11594454082535592,0.41753567702678984,0.6796475920381352,0.0051429597660899,0.9999999999999286,0.9285714285713622,0.6415245684517936,0.9495584644591077,0.7241872527981694,0.0032025620496397116,0.9912450700816194
1,good,butv116_00038,72,0.408,-0.2229247020890236,0.41753567702678984,0.6796475920381352,0.0051429597660899,0.9999999999999286,0.9285714285713622,0.6415245684517936,0.9495584644591077,0.7241872527981694,0.0032025620496397116,0.9912450700816194
1,good,butv116_00038,72,0.416,-0.24218430704633204,0.41753567702678984,0.6796475920381352,0.0051429597660899,0.9999999999999286,0.9285714285713622,0.6415245684517936,0.9495584644591077,0.7241872527981694,0.0032025620496397116,0.9912450700816194
1,good,butv116_00038,72,0.424,-0.2882151925698636,0.41753567702678984,0.6796475920381352,0.0051429597660899,0.9999999999999286,0.9285714285713622,0.6415245684517936,0.9495584644591077,0.7241872527981694,0.0032025620496397116,0.9912450700816194
1,good,butv116_00038,72,0.432,-0.1904303754888331,0.41753567702678984,0.6796475920381352,0.0051429597660899,0.9999999999999286,0.9285714285713622,0.6415245684517936,0.9495584644591077,0.7241872527981694,0.0032025620496397116,0.9912450700816194
1,good,butv116_00038,72,0.44,-0.20786430745959364,0.41753567702678984,0.6796475920381352,0.0051429597660899,0.9999999999999286,0.9285714285713622,0.6415245684517936,0.9495584644591077,0.7241872527981694,0.0032025620496397116,0.9912450700816194
1,good,butv116_00038,72,0.448,-0.16493876622875803,0.41753567702678984,0.6796475920381352,0.0051429597660899,0.9999999999999286,0.9285714285713622,0.6415245684517936,0.9495584644591077,0.7241872527981694,0.0032025620496397116,0.9912450700816194
1,good,butv116_00038,72,0.456,-0.18019692645940188,0.41753567702678984,0.6796475920381352,0.0051429597660899,0.9999999999999286,0.9285714285713622,0.6415245684517936,0.9495584644591077,0.7241872527981694,0.0032025620496397116,0.9912450700816194
1,good,butv116_00038,72,0.464,-0.12303451675752314,0.41753567702678984,0.6796475920381352,0.0051429597660899,0.9999999999999286,0.9285714285713622,0.6415245684517936,0.9495584644591077,0.7241872527981694,0.0032025620496397116,0.9912450700816194
1,good,butv116_00038,72,0.472,-0.09059101455835278,0.41753567702678984,0.6796475920381352,0.0051429597660899,0.9999999999999286,0.9285714285713622,0.6415245684517936,0.9495584644591077,0.7241872527981694,0.0032025620496397116,0.9912450700816194
1,good,butv116_00038,72,0.48,0.0063665934683951675,0.41753567702678984,0.6796475920381352,0.0051429597660899,0.9999999999999286,0.9285714285713622,0.6415245684517936,0.9495584644591077,0.7241872527981694,0.0032025620496397116,0.9912450700816194
1,good,butv116_00038,72,0.488,0.03918688764794114,0.41753567702678984,0.6796475920381352,0.0051429597660899,0.9999999999999286,0.9285714285713622,0.6415245684517936,0.9495584644591077,0.7241872527981694,0.0032025620496397116,0.9912450700816194
1,good,butv116_00038,72,0.496,0.0715288320780298,0.41753567702678984,0.6796475920381352,0.0051429597660899,0.9999999999999286,0.9285714285713622,0.6415245684517936,0.9495584644591077,0.7241872527981694,0.0032025620496397116,0.9912450700816194
1,good,butv116_00038,72,0.504,0.1574010131784822,0.41753567702678984,0.6796475920381352,0.0051429597660899,0.9999999999999286,0.9285714285713622,0.6415245684517936,0.9495584644591077,0.7241872527981694,0.0032025620496397116,0.9912450700816194
1,good,butv116_00038,72,0.512,0.19841054871773278,0.41753567702678984,0.6796475920381352,0.0051429597660899,0.9999999999999286,0.9285714285713622,0.6415245684517936,0.9495584644591077,0.7241872527981694,0.0032025620496397116,0.9912450700816194
1,good,butv116_00038,72,0.52,0.3501222820873398,0.41753567702678984,0.6796475920381352,0.0051429597660899,0.9999999999999286,0.9285714285713622,0.6415245684517936,0.9495584644591077,0.7241872527981694,0.0032025620496397116,0.9912450700816194
1,good,butv116_00038,72,0.528,0.45525537761919693,0.41753567702678984,0.6796475920381352,0.0051429597660899,0.9999999999999286,0.9285714285713622,0.6415245684517936,0.9495584644591077,0.7241872527981694,0.0032025620496397116,0.9912450700816194
1,good,butv116_00038,72,0.536,0.5789797001215108,0.41753567702678984,0.6796475920381352,0.0051429597660899,0.9999999999999286,0.9285714285713622,0.6415245684517936,0.9495584644591077,0.7241872527981694,0.0032025620496397116,0.9912450700816194
1,good,butv116_00038,72,0.544,0.7017472522242404,0.41753567702678984,0.6796475920381352,0.0051429597660899,0.9999999999999286,0.9285714285713622,0.6415245684517936,0.9495584644591077,0.7241872527981694,0.0032025620496397116,0.9912450700816194
1,good,butv116_00038,72,0.552,0.9214141508225782,0.41753567702678984,0.6796475920381352,0.0051429597660899,0.9999999999999286,0.9285714285713622,0.6415245684517936,0.9495584644591077,0.7241872527981694,0.0032025620496397116,0.9912450700816194
1,good,butv116_00038,72,0.56,1.1345972619598301,0.41753567702678984,0.6796475920381352,0.0051429597660899,0.9999999999999286,0.9285714285713622,0.6415245684517936,0.9495584644591077,0.7241872527981694,0.0032025620496397116,0.9912450700816194
1,good,butv116_00038,72,0.568,1.2245630341486204,0.41753567702678984,0.6796475920381352,0.0051429597660899,0.9999999999999286,0.9285714285713622,0.6415245684517936,0.9495584644591077,0.7241872527981694,0.0032025620496397116,0.9912450700816194
1,good,butv116_00038,72,0.576,1.3030956269445215,0.41753567702678984,0.6796475920381352,0.0051429597660899,0.9999999999999286,0.9285714285713622,0.6415245684517936,0.9495584644591077,0.7241872527981694,0.0032025620496397116,0.9912450700816194
1,good,butv116_00038,72,0.584,1.40906258437683,0.41753567702678984,0.6796475920381352,0.0051429597660899,0.9999999999999286,0.9285714285713622,0.6415245684517936,0.9495584644591077,0.7241872527981694,0.0032025620496397116,0.9912450700816194
1,good,butv116_00038,72,0.592,1.4675145949798758,0.41753567702678984,0.6796475920381352,0.0051429597660899,0.9999999999999286,0.9285714285713622,0.6415245684517936,0.9495584644591077,0.7241872527981694,0.0032025620496397116,0.9912450700816194
1,good,butv116_00038,72,0.6,1.5389285784768734,0.41753567702678984,0.6796475920381352,0.0051429597660899,0.9999999999999286,0.9285714285713622,0.6415245684517936,0.9495584644591077,0.7241872527981694,0.0032025620496397116,0.9912450700816194
1,good,butv116_00038,72,0.608,1.4798957495880447,0.41753567702678984,0.6796475920381352,0.0051429597660899,0.9999999999999286,0.9285714285713622,0.6415245684517936,0.9495584644591077,0.7241872527981694,0.0032025620496397116,0.9912450700816194
1,good,butv116_00038,72,0.616,1.1834060532266364,0.41753567702678984,0.6796475920381352,0.0051429597660899,0.9999999999999286,0.9285714285713622,0.6415245684517936,0.9495584644591077,0.7241872527981694,0.0032025620496397116,0.9912450700816194
1,good,butv116_00038,72,0.624,0.8813022282649154,0.41753567702678984,0.6796475920381352,0.0051429597660899,0.9999999999999286,0.9285714285713622,0.6415245684517936,0.9495584644591077,0.7241872527981694,0.0032025620496397116,0.9912450700816194
1,good,butv116_00038,72,0.632,0.606055422911315,0.41753567702678984,0.6796475920381352,0.0051429597660899,0.9999999999999286,0.9285714285713622,0.6415245684517936,0.9495584644591077,0.7241872527981694,0.0032025620496397116,0.9912450700816194
1,good,butv116_00038,72,0.64,0.329262289708325,0.41753567702678984,0.6796475920381352,0.0051429597660899,0.9999999999999286,0.9285714285713622,0.6415245684517936,0.9495584644591077,0.7241872527981694,0.0032025620496397116,0.9912450700816194
1,good,butv116_00038,72,0.648,0.12983990265361167,0.41753567702678984,0.6796475920381352,0.0051429597660899,0.9999999999999286,0.9285714285713622,0.6415245684517936,0.9495584644591077,0.7241872527981694,0.0032025620496397116,0.9912450700816194
1,good,butv116_00038,72,0.656,-0.051210573334165156,0.41753567702678984,0.6796475920381352,0.0051429597660899,0.9999999999999286,0.9285714285713622,0.6415245684517936,0.9495584644591077,0.7241872527981694,0.0032025620496397116,0.9912450700816194
1,good,butv116_00038,72,0.664,-0.13116235945028512,0.41753567702678984,0.6796475920381352,0.0051429597660899,0.9999999999999286,0.9285714285713622,0.6415245684517936,0.9495584644591077,0.7241872527981694,0.0032025620496397116,0.9912450700816194
1,good,butv116_00038,72,0.672,-0.18874584560327196,0.41753567702678984,0.6796475920381352,0.0051429597660899,0.9999999999999286,0.9285714285713622,0.6415245684517936,0.9495584644591077,0.7241872527981694,0.0032025620496397116,0.9912450700816194
1,good,butv116_00038,72,0.68,-0.21738649497615398,0.41753567702678984,0.6796475920381352,0.0051429597660899,0.9999999999999286,0.9285714285713622,0.6415245684517936,0.9495584644591077,0.7241872527981694,0.0032025620496397116,0.9912450700816194
1,good,butv116_00038,72,0.688,-0.284663142546956,0.41753567702678984,0.6796475920381352,0.0051429597660899,0.9999999999999286,0.9285714285713622,0.6415245684517936,0.9495584644591077,0.7241872527981694,0.0032025620496397116,0.9912450700816194
1,good,butv116_00038,72,0.696,-0.2376232477106946,0.41753567702678984,0.6796475920381352,0.0051429597660899,0.9999999999999286,0.9285714285713622,0.6415245684517936,0.9495584644591077,0.7241872527981694,0.0032025620496397116,0.9912450700816194
1,good,butv116_00038,72,0.704,-0.21213186253174832,0.41753567702678984,0.6796475920381352,0.0051429597660899,0.9999999999999286,0.9285714285713622,0.6415245684517936,0.9495584644591077,0.7241872527981694,0.0032025620496397116,0.9912450700816194
1,good,butv116_00038,72,0.712,-0.23309935783229263,0.41753567702678984,0.6796475920381352,0.0051429597660899,0.9999999999999286,0.9285714285713622,0.6415245684517936,0.9495584644591077,0.7241872527981694,0.0032025620496397116,0.9912450700816194
1,good,butv116_00038,72,0.72,-0.26670469267401686,0.41753567702678984,0.6796475920381352,0.0051429597660899,0.9999999999999286,0.9285714285713622,0.6415245684517936,0.9495584644591077,0.7241872527981694,0.0032025620496397116,0.9912450700816194
1,good,butv116_00038,72,0.728,-0.24431117308009373,0.41753567702678984,0.6796475920381352,0.0051429597660899,0.9999999999999286,0.9285714285713622,0.6415245684517936,0.9495584644591077,0.7241872527981694,0.0032025620496397116,0.9912450700816194
1,good,butv116_00038,72,0.736,-0.21624204262615065,0.41753567702678984,0.6796475920381352,0.0051429597660899,0.9999999999999286,0.9285714285713622,0.6415245684517936,0.9495584644591077,0.7241872527981694,0.0032025620496397116,0.9912450700816194
1,good,butv116_00038,72,0.744,-0.23522375897363781,0.41753567702678984,0.6796475920381352,0.0051429597660899,0.9999999999999286,0.9285714285713622,0.6415245684517936,0.9495584644591077,0.7241872527981694,0.0032025620496397116,0.9912450700816194
1,good,butv116_00038,72,0.752,-0.2225764940199788,0.41753567702678984,0.6796475920381352,0.0051429597660899,0.9999999999999286,0.9285714285713622,0.6415245684517936,0.9495584644591077,0.7241872527981694,0.0032025620496397116,0.9912450700816194
1,good,butv116_00038,72,0.76,-0.2266950491465691,0.41753567702678984,0.6796475920381352,0.0051429597660899,0.9999999999999286,0.9285714285713622,0.6415245684517936,0.9495584644591077,0.7241872527981694,0.0032025620496397116,0.9912450700816194
1,good,butv116_00038,72,0.768,-0.2082918822634362,0.41753567702678984,0.6796475920381352,0.0051429597660899,0.9999999999999286,0.9285714285713622,0.6415245684517936,0.9495584644591077,0.7241872527981694,0.0032025620496397116,0.9912450700816194
1,good,butv116_00038,72,0.776,-0.24502742039807984,0.41753567702678984,0.6796475920381352,0.0051429597660899,0.9999999999999286,0.9285714285713622,0.6415245684517936,0.9495584644591077,0.7241872527981694,0.0032025620496397116,0.9912450700816194
1,good,butv116_00038,72,0.784,-0.17123303707518284,0.41753567702678984,0.6796475920381352,0.0051429597660899,0.9999999999999286,0.9285714285713622,0.6415245684517936,0.9495584644591077,0.7241872527981694,0.0032025620496397116,0.9912450700816194
1,good,butv116_00038,72,0.792,-0.21109223813479974,0.41753567702678984,0.6796475920381352,0.0051429597660899,0.9999999999999286,0.9285714285713622,0.6415245684517936,0.9495584644591077,0.7241872527981694,0.0032025620496397116,0.9912450700816194
1,good,butv116_00038,72,0.8,-0.20407663612977978,0.41753567702678984,0.6796475920381352,0.0051429597660899,0.9999999999999286,0.9285714285713622,0.6415245684517936,0.9495584644591077,0.7241872527981694,0.0032025620496397116,0.9912450700816194
1,good,butv116_00038,72,0.808,-0.2513768992326064,0.41753567702678984,0.6796475920381352,0.0051429597660899,0.9999999999999286,0.9285714285713622,0.6415245684517936,0.9495584644591077,0.7241872527981694,0.0032025620496397116,0.9912450700816194
1,good,butv116_00038,72,0.816,-0.23501329077343652,0.41753567702678984,0.6796475920381352,0.0051429597660899,0.9999999999999286,0.9285714285713622,0.6415245684517936,0.9495584644591077,0.7241872527981694,0.0032025620496397116,0.9912450700816194
1,good,butv116_00038,72,0.824,-0.17282871879318495,0.41753567702678984,0.6796475920381352,0.0051429597660899,0.9999999999999286,0.9285714285713622,0.6415245684517936,0.9495584644591077,0.7241872527981694,0.0032025620496397116,0.9912450700816194
1,good,butv116_00038,72,0.832,-0.2591472204844089,0.41753567702678984,0.6796475920381352,0.0051429597660899,0.9999999999999286,0.9285714285713622,0.6415245684517936,0.9495584644591077,0.7241872527981694,0.0032025620496397116,0.9912450700816194
1,good,butv116_00038,72,0.84,-0.24282615942956504,0.41753567702678984,0.6796475920381352,0.0051429597660899,0.9999999999999286,0.9285714285713622,0.6415245684517936,0.9495584644591077,0.7241872527981694,0.0032025620496397116,0.9912450700816194
1,good,butv116_00038,72,0.848,-0.22421874259755434,0.41753567702678984,0.6796475920381352,0.0051429597660899,0.9999999999999286,0.9285714285713622,0.6415245684517936,0.9495584644591077,0.7241872527981694,0.0032025620496397116,0.9912450700816194
1,good,butv116_00038,72,0.856,-0.25318727868211544,0.41753567702678984,0.6796475920381352,0.0051429597660899,0.9999999999999286,0.9285714285713622,0.6415245684517936,0.9495584644591077,0.7241872527981694,0.0032025620496397116,0.9912450700816194
1,good,butv116_00038,72,0.864,-0.2288600369823635,0.41753567702678984,0.6796475920381352,0.0051429597660899,0.9999999999999286,0.9285714285713622,0.6415245684517936,0.9495584644591077,0.7241872527981694,0.0032025620496397116,0.9912450700816194
1,good,butv116_00038,72,0.872,-0.059120969800325086,0.41753567702678984,0.6796475920381352,0.0051429597660899,0.9999999999999286,0.9285714285713622,0.6415245684517936,0.9495584644591077,0.7241872527981694,0.0032025620496397116,0.9912450700816194
1,good,butv116_00038,72,0.88,0.0769873083242674,0.41753567702678984,0.6796475920381352,0.0051429597660899,0.9999999999999286,0.9285714285713622,0.6415245684517936,0.9495584644591077,0.7241872527981694,0.0032025620496397116,0.9912450700816194
1,good,butv116_00038,72,0.888,0.0774213254605622,0.41753567702678984,0.6796475920381352,0.0051429597660899,0.9999999999999286,0.9285714285713622,0.6415245684517936,0.9495584644591077,0.7241872527981694,0.0032025620496397116,0.9912450700816194
1,good,butv116_00038,72,0.896,0.1659286446151187,0.41753567702678984,0.6796475920381352,0.0051429597660899,0.9999999999999286,0.9285714285713622,0.6415245684517936,0.9495584644591077,0.7241872527981694,0.0032025620496397116,0.9912450700816194
1,good,butv116_00038,72,0.904,0.36398912258942373,0.41753567702678984,0.6796475920381352,0.0051429597660899,0.9999999999999286,0.9285714285713622,0.6415245684517936,0.9495584644591077,0.7241872527981694,0.0032025620496397116,0.9912450700816194
1,good,butv116_00038,72,0.912,0.33561199262398034,0.41753567702678984,0.6796475920381352,0.0051429597660899,0.9999999999999286,0.9285714285713622,0.6415245684517936,0.9495584644591077,0.7241872527981694,0.0032025620496397116,0.9912450700816194
1,good,butv116_00038,72,0.92,0.3653266348369367,0.41753567702678984,0.6796475920381352,0.0051429597660899,0.9999999999999286,0.9285714285713622,0.6415245684517936,0.9495584644591077,0.7241872527981694,0.0032025620496397116,0.9912450700816194
1,good,butv116_00038,72,0.928,0.3560156998045284,0.41753567702678984,0.6796475920381352,0.0051429597660899,0.9999999999999286,0.9285714285713622,0.6415245684517936,0.9495584644591077,0.7241872527981694,0.0032025620496397116,0.9912450700816194
1,good,butv116_00038,72,0.936,0.1537501433777851,0.41753567702678984,0.6796475920381352,0.0051429597660899,0.9999999999999286,0.9285714285713622,0.6415245684517936,0.9495584644591077,0.7241872527981694,0.0032025620496397116,0.9912450700816194
1,good,butv116_00038,72,0.944,-0.07090103378309211,0.41753567702678984,0.6796475920381352,0.0051429597660899,0.9999999999999286,0.9285714285713622,0.6415245684517936,0.9495584644591077,0.7241872527981694,0.0032025620496397116,0.9912450700816194
1,good,butv116_00038,72,0.952,-0.2638238216520706,0.41753567702678984,0.6796475920381352,0.0051429597660899,0.9999999999999286,0.9285714285713622,0.6415245684517936,0.9495584644591077,0.7241872527981694,0.0032025620496397116,0.9912450700816194
1,good,butv116_00038,72,0.96,-0.3284162433964964,0.41753567702678984,0.6796475920381352,0.0051429597660899,0.9999999999999286,0.9285714285713622,0.6415245684517936,0.9495584644591077,0.7241872527981694,0.0032025620496397116,0.9912450700816194
1,good,butv116_00038,72,0.968,-0.3250379962990943,0.41753567702678984,0.6796475920381352,0.0051429597660899,0.9999999999999286,0.9285714285713622,0.6415245684517936,0.9495584644591077,0.7241872527981694,0.0032025620496397116,0.9912450700816194
1,good,butv116_00038,72,0.976,-0.34331226051289976,0.41753567702678984,0.6796475920381352,0.0051429597660899,0.9999999999999286,0.9285714285713622,0.6415245684517936,0.9495584644591077,0.7241872527981694,0.0032025620496397116,0.9912450700816194
1,good,butv116_00038,72,0.984,-0.34977072680643395,0.41753567702678984,0.6796475920381352,0.0051429597660899,0.9999999999999286,0.9285714285713622,0.6415245684517936,0.9495584644591077,0.7241872527981694,0.0032025620496397116,0.9912450700816194
1,good,butv116_00038,72,0.992,-0.3588088990848417,0.41753567702678984,0.6796475920381352,0.0051429597660899,0.9999999999999286,0.9285714285713622,0.6415245684517936,0.9495584644591077,0.7241872527981694,0.0032025620496397116,0.9912450700816194
1,good,butv116_00038,72,1.0,-0.3509405423392004,0.41753567702678984,0.6796475920381352,0.0051429597660899,0.9999999999999286,0.9285714285713622,0.6415245684517936,0.9495584644591077,0.7241872527981694,0.0032025620496397116,0.9912450700816194
1,good,butv116_00038,72,1.008,-0.31973239940296305,0.41753567702678984,0.6796475920381352,0.0051429597660899,0.9999999999999286,0.9285714285713622,0.6415245684517936,0.9495584644591077,0.7241872527981694,0.0032025620496397116,0.9912450700816194
1,good,butv116_00038,72,1.016,-0.24545194209654284,0.41753567702678984,0.6796475920381352,0.0051429597660899,0.9999999999999286,0.9285714285713622,0.6415245684517936,0.9495584644591077,0.7241872527981694,0.0032025620496397116,0.9912450700816194
1,good,butv116_00038,72,1.024,-0.42327393070755925,0.41753567702678984,0.6796475920381352,0.0051429597660899,0.9999999999999286,0.9285714285713622,0.6415245684517936,0.9495584644591077,0.7241872527981694,0.0032025620496397116,0.9912450700816194
1,good,butv116_00038,72,1.032,-0.44942380629355005,0.41753567702678984,0.6796475920381352,0.0051429597660899,0.9999999999999286,0.9285714285713622,0.6415245684517936,0.9495584644591077,0.7241872527981694,0.0032025620496397116,0.9912450700816194
1,good,butv116_00038,72,1.04,0.4806413046169138,0.41753567702678984,0.6796475920381352,0.0051429597660899,0.9999999999999286,0.9285714285713622,0.6415245684517936,0.9495584644591077,0.7241872527981694,0.0032025620496397116,0.9912450700816194
1,good,butv116_00038,72,1.048,2.5,0.41753567702678984,0.6796475920381352,0.0051429597660899,0.9999999999999286,0.9285714285713622,0.6415245684517936,0.9495584644591077,0.7241872527981694,0.0032025620496397116,0.9912450700816194
1,good,butv116_00038,72,1.056,2.5,0.41753567702678984,0.6796475920381352,0.0051429597660899,0.9999999999999286,0.9285714285713622,0.6415245684517936,0.9495584644591077,0.7241872527981694,0.0032025620496397116,0.9912450700816194
1,good,butv116_00038,72,1.064,2.5,0.41753567702678984,0.6796475920381352,0.0051429597660899,0.9999999999999286,0.9285714285713622,0.6415245684517936,0.9495584644591077,0.7241872527981694,0.0032025620496397116,0.9912450700816194
1,good,butv116_00038,72,1.072,2.5,0.41753567702678984,0.6796475920381352,0.0051429597660899,0.9999999999999286,0.9285714285713622,0.6415245684517936,0.9495584644591077,0.7241872527981694,0.0032025620496397116,0.9912450700816194
1,good,butv116_00038,72,1.08,-0.5752576005320045,0.41753567702678984,0.6796475920381352,0.0051429597660899,0.9999999999999286,0.9285714285713622,0.6415245684517936,0.9495584644591077,0.7241872527981694,0.0032025620496397116,0.9912450700816194
1,good,butv116_00038,72,1.088,0.12954590821265974,0.41753567702678984,0.6796475920381352,0.0051429597660899,0.9999999999999286,0.9285714285713622,0.6415245684517936,0.9495584644591077,0.7241872527981694,0.0032025620496397116,0.9912450700816194
1,good,butv116_00038,72,1.096,-0.11583238822040436,0.41753567702678984,0.6796475920381352,0.0051429597660899,0.9999999999999286,0.9285714285713622,0.6415245684517936,0.9495584644591077,0.7241872527981694,0.0032025620496397116,0.9912450700816194
1,good,butv116_00038,72,1.104,-0.06403389252842043,0.41753567702678984,0.6796475920381352,0.0051429597660899,0.9999999999999286,0.9285714285713622,0.6415245684517936,0.9495584644591077,0.7241872527981694,0.0032025620496397116,0.9912450700816194
1,good,butv116_00038,72,1.112,-0.310936934997159,0.41753567702678984,0.6796475920381352,0.0051429597660899,0.9999999999999286,0.9285714285713622,0.6415245684517936,0.9495584644591077,0.7241872527981694,0.0032025620496397116,0.9912450700816194
1,good,butv116_00038,72,1.12,-0.2126616883556647,0.41753567702678984,0.6796475920381352,0.0051429597660899,0.9999999999999286,0.9285714285713622,0.6415245684517936,0.9495584644591077,0.7241872527981694,0.0032025620496397116,0.9912450700816194
1,good,butv116_00038,72,1.128,-0.23693873588257117,0.41753567702678984,0.6796475920381352,0.0051429597660899,0.9999999999999286,0.9285714285713622,0.6415245684517936,0.9495584644591077,0.7241872527981694,0.0032025620496397116,0.9912450700816194
1,good,butv116_00038,72,1.136,-0.20249224249863967,0.41753567702678984,0.6796475920381352,0.0051429597660899,0.9999999999999286,0.9285714285713622,0.6415245684517936,0.9495584644591077,0.7241872527981694,0.0032025620496397116,0.9912450700816194
1,good,butv116_00038,72,1.144,-0.16979517849719059,0.41753567702678984,0.6796475920381352,0.0051429597660899,0.9999999999999286,0.9285714285713622,0.6415245684517936,0.9495584644591077,0.7241872527981694,0.0032025620496397116,0.9912450700816194
1,good,butv116_00038,72,1.152,-0.14460322172656903,0.41753567702678984,0.6796475920381352,0.0051429597660899,0.9999999999999286,0.9285714285713622,0.6415245684517936,0.9495584644591077,0.7241872527981694,0.0032025620496397116,0.9912450700816194
1,good,butv116_00038,72,1.16,-0.10254712227791314,0.41753567702678984,0.6796475920381352,0.0051429597660899,0.9999999999999286,0.9285714285713622,0.6415245684517936,0.9495584644591077,0.7241872527981694,0.0032025620496397116,0.9912450700816194
1,good,butv116_00038,72,1.168,-0.043326359347395454,0.41753567702678984,0.6796475920381352,0.0051429597660899,0.9999999999999286,0.9285714285713622,0.6415245684517936,0.9495584644591077,0.7241872527981694,0.0032025620496397116,0.9912450700816194
1,good,butv116_00038,72,1.176,-0.034105361376781294,0.41753567702678984,0.6796475920381352,0.0051429597660899,0.9999999999999286,0.9285714285713622,0.6415245684517936,0.9495584644591077,0.7241872527981694,0.0032025620496397116,0.9912450700816194
1,good,butv116_00038,72,1.184,0.009661864461724047,0.41753567702678984,0.6796475920381352,0.0051429597660899,0.9999999999999286,0.9285714285713622,0.6415245684517936,0.9495584644591077,0.7241872527981694,0.0032025620496397116,0.9912450700816194
1,good,butv116_00038,72,1.192,0.07441933858851338,0.41753567702678984,0.6796475920381352,0.0051429597660899,0.9999999999999286,0.9285714285713622,0.6415245684517936,0.9495584644591077,0.7241872527981694,0.0032025620496397116,0.9912450700816194
1,good,butv116_00038,72,1.2,0.13216502446605646,0.41753567702678984,0.6796475920381352,0.0051429597660899,0.9999999999999286,0.9285714285713622,0.6415245684517936,0.9495584644591077,0.7241872527981694,0.0032025620496397116,0.9912450700816194
1,good,butv116_00038,72,1.208,0.2204893603713629,0.41753567702678984,0.6796475920381352,0.0051429597660899,0.9999999999999286,0.9285714285713622,0.6415245684517936,0.9495584644591077,0.7241872527981694,0.0032025620496397116,0.9912450700816194
1,good,butv116_00038,72,1.216,0.2611773675009634,0.41753567702678984,0.6796475920381352,0.0051429597660899,0.9999999999999286,0.9285714285713622,0.6415245684517936,0.9495584644591077,0.7241872527981694,0.0032025620496397116,0.9912450700816194
1,good,butv116_00038,72,1.224,0.3799875068188326,0.41753567702678984,0.6796475920381352,0.0051429597660899,0.9999999999999286,0.9285714285713622,0.6415245684517936,0.9495584644591077,0.7241872527981694,0.0032025620496397116,0.9912450700816194
1,good,butv116_00038,72,1.232,0.5085331868979963,0.41753567702678984,0.6796475920381352,0.0051429597660899,0.9999999999999286,0.9285714285713622,0.6415245684517936,0.9495584644591077,0.7241872527981694,0.0032025620496397116,0.9912450700816194
1,good,butv116_00038,72,1.24,0.6680253951955535,0.41753567702678984,0.6796475920381352,0.0051429597660899,0.9999999999999286,0.9285714285713622,0.6415245684517936,0.9495584644591077,0.7241872527981694,0.0032025620496397116,0.9912450700816194
1,good,butv116_00038,72,1.248,0.8289594535162091,0.41753567702678984,0.6796475920381352,0.0051429597660899,0.9999999999999286,0.9285714285713622,0.6415245684517936,0.9495584644591077,0.7241872527981694,0.0032025620496397116,0.9912450700816194
1,good,butv116_00038,72,1.256,0.9409718957217209,0.41753567702678984,0.6796475920381352,0.0051429597660899,0.9999999999999286,0.9285714285713622,0.6415245684517936,0.9495584644591077,0.7241872527981694,0.0032025620496397116,0.9912450700816194
1,good,butv116_00038,72,1.264,1.1363249274626805,0.41753567702678984,0.6796475920381352,0.0051429597660899,0.9999999999999286,0.9285714285713622,0.6415245684517936,0.9495584644591077,0.7241872527981694,0.0032025620496397116,0.9912450700816194
1,good,butv116_00038,72,1.272,1.2678276101272916,0.41753567702678984,0.6796475920381352,0.0051429597660899,0.9999999999999286,0.9285714285713622,0.6415245684517936,0.9495584644591077,0.7241872527981694,0.0032025620496397116,0.9912450700816194
1,good,butv116_00038,72,1.28,1.4641577476302716,0.41753567702678984,0.6796475920381352,0.0051429597660899,0.9999999999999286,0.9285714285713622,0.6415245684517936,0.9495584644591077,0.7241872527981694,0.0032025620496397116,0.9912450700816194
1,good,butv116_00038,72,1.288,1.5459899350473751,0.41753567702678984,0.6796475920381352,0.0051429597660899,0.9999999999999286,0.9285714285713622,0.6415245684517936,0.9495584644591077,0.7241872527981694,0.0032025620496397116,0.9912450700816194
1,good,butv116_00038,72,1.296,1.5827744209035852,0.41753567702678984,0.6796475920381352,0.0051429597660899,0.9999999999999286,0.9285714285713622,0.6415245684517936,0.9495584644591077,0.7241872527981694,0.0032025620496397116,0.9912450700816194
1,good,butv116_00038,72,1.304,1.593104336858954,0.41753567702678984,0.6796475920381352,0.0051429597660899,0.9999999999999286,0.9285714285713622,0.6415245684517936,0.9495584644591077,0.7241872527981694,0.0032025620496397116,0.9912450700816194
1,good,butv116_00038,72,1.312,1.5561969425036108,0.41753567702678984,0.6796475920381352,0.0051429597660899,0.9999999999999286,0.9285714285713622,0.6415245684517936,0.9495584644591077,0.7241872527981694,0.0032025620496397116,0.9912450700816194
1,good,butv116_00038,72,1.32,1.3726562354254266,0.41753567702678984,0.6796475920381352,0.0051429597660899,0.9999999999999286,0.9285714285713622,0.6415245684517936,0.9495584644591077,0.7241872527981694,0.0032025620496397116,0.9912450700816194
1,good,butv116_00038,72,1.328,1.0104530674424754,0.41753567702678984,0.6796475920381352,0.0051429597660899,0.9999999999999286,0.9285714285713622,0.6415245684517936,0.9495584644591077,0.7241872527981694,0.0032025620496397116,0.9912450700816194
1,good,butv116_00038,72,1.336,0.7324989699113056,0.41753567702678984,0.6796475920381352,0.0051429597660899,0.9999999999999286,0.9285714285713622,0.6415245684517936,0.9495584644591077,0.7241872527981694,0.0032025620496397116,0.9912450700816194
1,good,butv116_00038,72,1.344,0.44671959523150123,0.41753567702678984,0.6796475920381352,0.0051429597660899,0.9999999999999286,0.9285714285713622,0.6415245684517936,0.9495584644591077,0.7241872527981694,0.0032025620496397116,0.9912450700816194
1,good,butv116_00038,72,1.352,0.26379712798760535,0.41753567702678984,0.6796475920381352,0.0051429597660899,0.9999999999999286,0.9285714285713622,0.6415245684517936,0.9495584644591077,0.7241872527981694,0.0032025620496397116,0.9912450700816194
1,good,butv116_00038,72,1.36,0.13809010764775498,0.41753567702678984,0.6796475920381352,0.0051429597660899,0.9999999999999286,0.9285714285713622,0.6415245684517936,0.9495584644591077,0.7241872527981694,0.0032025620496397116,0.9912450700816194
1,good,butv116_00038,72,1.368,0.036956776234096655,0.41753567702678984,0.6796475920381352,0.0051429597660899,0.9999999999999286,0.9285714285713622,0.6415245684517936,0.9495584644591077,0.7241872527981694,0.0032025620496397116,0.9912450700816194
1,good,butv116_00038,72,1.376,-0.03281631367590104,0.41753567702678984,0.6796475920381352,0.0051429597660899,0.9999999999999286,0.9285714285713622,0.6415245684517936,0.9495584644591077,0.7241872527981694,0.0032025620496397116,0.9912450700816194
1,good,butv116_00038,72,1.384,-0.07396971980362765,0.41753567702678984,0.6796475920381352,0.0051429597660899,0.9999999999999286,0.9285714285713622,0.6415245684517936,0.9495584644591077,0.7241872527981694,0.0032025620496397116,0.9912450700816194
1,good,butv116_00038,72,1.392,-0.05331717403084333,0.41753567702678984,0.6796475920381352,0.0051429597660899,0.9999999999999286,0.9285714285713622,0.6415245684517936,0.9495584644591077,0.7241872527981694,0.0032025620496397116,0.9912450700816194
1,good,butv116_00038,72,1.4,-0.0637089818942329,0.41753567702678984,0.6796475920381352,0.0051429597660899,0.9999999999999286,0.9285714285713622,0.6415245684517936,0.9495584644591077,0.7241872527981694,0.0032025620496397116,0.9912450700816194
1,good,butv116_00038,72,1.408,-0.06906253215192189,0.41753567702678984,0.6796475920381352,0.0051429597660899,0.9999999999999286,0.9285714285713622,0.6415245684517936,0.9495584644591077,0.7241872527981694,0.0032025620496397116,0.9912450700816194
1,good,butv116_00038,72,1.416,-0.06308884437288517,0.41753567702678984,0.6796475920381352,0.0051429597660899,0.9999999999999286,0.9285714285713622,0.6415245684517936,0.9495584644591077,0.7241872527981694,0.0032025620496397116,0.9912450700816194
1,good,butv116_00038,72,1.424,-0.06132337918462484,0.41753567702678984,0.6796475920381352,0.0051429597660899,0.9999999999999286,0.9285714285713622,0.6415245684517936,0.9495584644591077,0.7241872527981694,0.0032025620496397116,0.9912450700816194
1,good,butv116_00038,72,1.432,-0.039687610935257966,0.41753567702678984,0.6796475920381352,0.0051429597660899,0.9999999999999286,0.9285714285713622,0.6415245684517936,0.9495584644591077,0.7241872527981694,0.0032025620496397116,0.9912450700816194
1,good,butv116_00038,72,1.44,-0.017728390329674413,0.41753567702678984,0.6796475920381352,0.0051429597660899,0.9999999999999286,0.9285714285713622,0.6415245684517936,0.9495584644591077,0.7241872527981694,0.0032025620496397116,0.9912450700816194
1,good,butv116_00038,72,1.448,-0.016713654693724152,0.41753567702678984,0.6796475920381352,0.0051429597660899,0.9999999999999286,0.9285714285713622,0.6415245684517936,0.9495584644591077,0.7241872527981694,0.0032025620496397116,0.9912450700816194
1,good,butv116_00038,72,1.456,0.011976015052028001,0.41753567702678984,0.6796475920381352,0.0051429597660899,0.9999999999999286,0.9285714285713622,0.6415245684517936,0.9495584644591077,0.7241872527981694,0.0032025620496397116,0.9912450700816194
1,good,butv116_00038,72,1.464,0.015807027698604606,0.41753567702678984,0.6796475920381352,0.0051429597660899,0.9999999999999286,0.9285714285713622,0.6415245684517936,0.9495584644591077,0.7241872527981694,0.0032025620496397116,0.9912450700816194
1,good,butv116_00038,72,1.472,-0.007286631631540168,0.41753567702678984,0.6796475920381352,0.0051429597660899,0.9999999999999286,0.9285714285713622,0.6415245684517936,0.9495584644591077,0.7241872527981694,0.0032025620496397116,0.9912450700816194
1,good,butv116_00038,72,1.48,0.038462513887769334,0.41753567702678984,0.6796475920381352,0.0051429597660899,0.9999999999999286,0.9285714285713622,0.6415245684517936,0.9495584644591077,0.7241872527981694,0.0032025620496397116,0.9912450700816194
1,good,butv116_00038,72,1.488,0.04252643523415032,0.41753567702678984,0.6796475920381352,0.0051429597660899,0.9999999999999286,0.9285714285713622,0.6415245684517936,0.9495584644591077,0.7241872527981694,0.0032025620496397116,0.9912450700816194
1,good,butv116_00038,72,1.496,-0.0033093261757703315,0.41753567702678984,0.6796475920381352,0.0051429597660899,0.9999999999999286,0.9285714285713622,0.6415245684517936,0.9495584644591077,0.7241872527981694,0.0032025620496397116,0.9912450700816194
1,good,butv116_00038,72,1.504,0.0409646527894106,0.41753567702678984,0.6796475920381352,0.0051429597660899,0.9999999999999286,0.9285714285713622,0.6415245684517936,0.9495584644591077,0.7241872527981694,0.0032025620496397116,0.9912450700816194
1,good,butv116_00038,72,1.512,0.008411643192988502,0.41753567702678984,0.6796475920381352,0.0051429597660899,0.9999999999999286,0.9285714285713622,0.6415245684517936,0.9495584644591077,0.7241872527981694,0.0032025620496397116,0.9912450700816194
1,good,butv116_00038,72,1.52,-0.010750156478828302,0.41753567702678984,0.6796475920381352,0.0051429597660899,0.9999999999999286,0.9285714285713622,0.6415245684517936,0.9495584644591077,0.7241872527981694,0.0032025620496397116,0.9912450700816194
1,good,butv116_00038,72,1.528,-0.012927677977446646,0.41753567702678984,0.6796475920381352,0.0051429597660899,0.9999999999999286,0.9285714285713622,0.6415245684517936,0.9495584644591077,0.7241872527981694,0.0032025620496397116,0.9912450700816194
1,good,butv116_00038,72,1.536,0.011158229221932207,0.41753567702678984,0.6796475920381352,0.0051429597660899,0.9999999999999286,0.9285714285713622,0.6415245684517936,0.9495584644591077,0.7241872527981694,0.0032025620496397116,0.9912450700816194
1,good,butv116_00038,72,1.544,0.03185247071568984,0.41753567702678984,0.6796475920381352,0.0051429597660899,0.9999999999999286,0.9285714285713622,0.6415245684517936,0.9495584644591077,0.7241872527981694,0.0032025620496397116,0.9912450700816194
1,good,butv116_00038,72,1.552,-0.04638222022457631,0.41753567702678984,0.6796475920381352,0.0051429597660899,0.9999999999999286,0.9285714285713622,0.6415245684517936,0.9495584644591077,0.7241872527981694,0.0032025620496397116,0.9912450700816194
1,good,butv116_00038,72,1.56,-0.047997351484302515,0.41753567702678984,0.6796475920381352,0.0051429597660899,0.9999999999999286,0.9285714285713622,0.6415245684517936,0.9495584644591077,0.7241872527981694,0.0032025620496397116,0.9912450700816194
1,good,butv116_00038,72,1.568,-0.06286296359254535,0.41753567702678984,0.6796475920381352,0.0051429597660899,0.9999999999999286,0.9285714285713622,0.6415245684517936,0.9495584644591077,0.7241872527981694,0.0032025620496397116,0.9912450700816194
1,good,butv116_00038,72,1.576,0.17553531071722697,0.41753567702678984,0.6796475920381352,0.0051429597660899,0.9999999999999286,0.9285714285713622,0.6415245684517936,0.9495584644591077,0.7241872527981694,0.0032025620496397116,0.9912450700816194
1,good,butv116_00038,72,1.584,0.3032189366889253,0.41753567702678984,0.6796475920381352,0.0051429597660899,0.9999999999999286,0.9285714285713622,0.6415245684517936,0.9495584644591077,0.7241872527981694,0.0032025620496397116,0.9912450700816194
1,good,butv116_00038,72,1.592,0.28815807989216724,0.41753567702678984,0.6796475920381352,0.0051429597660899,0.9999999999999286,0.9285714285713622,0.6415245684517936,0.9495584644591077,0.7241872527981694,0.0032025620496397116,0.9912450700816194
1,good,butv116_00038,72,1.6,0.3811858646853767,0.41753567702678984,0.6796475920381352,0.0051429597660899,0.9999999999999286,0.9285714285713622,0.6415245684517936,0.9495584644591077,0.7241872527981694,0.0032025620496397116,0.9912450700816194
1,good,butv116_00038,72,1.608,0.5048710850307194,0.41753567702678984,0.6796475920381352,0.0051429597660899,0.9999999999999286,0.9285714285713622,0.6415245684517936,0.9495584644591077,0.7241872527981694,0.0032025620496397116,0.9912450700816194
1,good,butv116_00038,72,1.616,0.5459458841987255,0.41753567702678984,0.6796475920381352,0.0051429597660899,0.9999999999999286,0.9285714285713622,0.6415245684517936,0.9495584644591077,0.7241872527981694,0.0032025620496397116,0.9912450700816194
1,good,butv116_00038,72,1.624,0.5921467072482913,0.41753567702678984,0.6796475920381352,0.0051429597660899,0.9999999999999286,0.9285714285713622,0.6415245684517936,0.9495584644591077,0.7241872527981694,0.0032025620496397116,0.9912450700816194
1,good,butv116_00038,72,1.632,0.6065670001283068,0.41753567702678984,0.6796475920381352,0.0051429597660899,0.9999999999999286,0.9285714285713622,0.6415245684517936,0.9495584644591077,0.7241872527981694,0.0032025620496397116,0.9912450700816194
1,good,butv116_00038,72,1.64,0.40688847433833386,0.41753567702678984,0.6796475920381352,0.0051429597660899,0.9999999999999286,0.9285714285713622,0.6415245684517936,0.9495584644591077,0.7241872527981694,0.0032025620496397116,0.9912450700816194
1,good,butv116_00038,72,1.648,0.15102115734593616,0.41753567702678984,0.6796475920381352,0.0051429597660899,0.9999999999999286,0.9285714285713622,0.6415245684517936,0.9495584644591077,0.7241872527981694,0.0032025620496397116,0.9912450700816194
1,good,butv116_00038,72,1.656,-0.04921823300555608,0.41753567702678984,0.6796475920381352,0.0051429597660899,0.9999999999999286,0.9285714285713622,0.6415245684517936,0.9495584644591077,0.7241872527981694,0.0032025620496397116,0.9912450700816194
1,good,butv116_00038,72,1.664,-0.1223484363614983,0.41753567702678984,0.6796475920381352,0.0051429597660899,0.9999999999999286,0.9285714285713622,0.6415245684517936,0.9495584644591077,0.7241872527981694,0.0032025620496397116,0.9912450700816194
1,good,butv116_00038,72,1.672,-0.16190773284039184,0.41753567702678984,0.6796475920381352,0.0051429597660899,0.9999999999999286,0.9285714285713622,0.6415245684517936,0.9495584644591077,0.7241872527981694,0.0032025620496397116,0.9912450700816194
1,good,butv116_00038,72,1.68,-0.18683754270048852,0.41753567702678984,0.6796475920381352,0.0051429597660899,0.9999999999999286,0.9285714285713622,0.6415245684517936,0.9495584644591077,0.7241872527981694,0.0032025620496397116,0.9912450700816194
1,good,butv116_00038,72,1.688,-0.19500140643470099,0.41753567702678984,0.6796475920381352,0.0051429597660899,0.9999999999999286,0.9285714285713622,0.6415245684517936,0.9495584644591077,0.7241872527981694,0.0032025620496397116,0.9912450700816194
1,good,butv116_00038,72,1.696,-0.15739258212601206,0.41753567702678984,0.6796475920381352,0.0051429597660899,0.9999999999999286,0.9285714285713622,0.6415245684517936,0.9495584644591077,0.7241872527981694,0.0032025620496397116,0.9912450700816194
1,good,butv116_00038,72,1.704,-0.15225898150128564,0.41753567702678984,0.6796475920381352,0.0051429597660899,0.9999999999999286,0.9285714285713622,0.6415245684517936,0.9495584644591077,0.7241872527981694,0.0032025620496397116,0.9912450700816194
1,good,butv116_00038,72,1.712,-0.1899250865485175,0.41753567702678984,0.6796475920381352,0.0051429597660899,0.9999999999999286,0.9285714285713622,0.6415245684517936,0.9495584644591077,0.7241872527981694,0.0032025620496397116,0.9912450700816194
1,good,butv116_00038,72,1.72,-0.1419297938095856,0.41753567702678984,0.6796475920381352,0.0051429597660899,0.9999999999999286,0.9285714285713622,0.6415245684517936,0.9495584644591077,0.7241872527981694,0.0032025620496397116,0.9912450700816194
1,good,butv116_00038,72,1.728,-0.22349986232630514,0.41753567702678984,0.6796475920381352,0.0051429597660899,0.9999999999999286,0.9285714285713622,0.6415245684517936,0.9495584644591077,0.7241872527981694,0.0032025620496397116,0.9912450700816194
1,good,butv116_00038,72,1.736,-0.26089012350401575,0.41753567702678984,0.6796475920381352,0.0051429597660899,0.9999999999999286,0.9285714285713622,0.6415245684517936,0.9495584644591077,0.7241872527981694,0.0032025620496397116,0.9912450700816194
1,good,butv116_00038,72,1.744,0.5999386243188795,0.41753567702678984,0.6796475920381352,0.0051429597660899,0.9999999999999286,0.9285714285713622,0.6415245684517936,0.9495584644591077,0.7241872527981694,0.0032025620496397116,0.9912450700816194
1,good,butv116_00038,72,1.752,2.5,0.41753567702678984,0.6796475920381352,0.0051429597660899,0.9999999999999286,0.9285714285713622,0.6415245684517936,0.9495584644591077,0.7241872527981694,0.0032025620496397116,0.9912450700816194
1,good,butv116_00038,72,1.76,2.5,0.41753567702678984,0.6796475920381352,0.0051429597660899,0.9999999999999286,0.9285714285713622,0.6415245684517936,0.9495584644591077,0.7241872527981694,0.0032025620496397116,0.9912450700816194
1,good,butv116_00038,72,1.768,2.5,0.41753567702678984,0.6796475920381352,0.0051429597660899,0.9999999999999286,0.9285714285713622,0.6415245684517936,0.9495584644591077,0.7241872527981694,0.0032025620496397116,0.9912450700816194
1,good,butv116_00038,72,1.776,2.5,0.41753567702678984,0.6796475920381352,0.0051429597660899,0.9999999999999286,0.9285714285713622,0.6415245684517936,0.9495584644591077,0.7241872527981694,0.0032025620496397116,0.9912450700816194
1,good,butv116_00038,72,1.784,-0.21252107744735882,0.41753567702678984,0.6796475920381352,0.0051429597660899,0.9999999999999286,0.9285714285713622,0.6415245684517936,0.9495584644591077,0.7241872527981694,0.0032025620496397116,0.9912450700816194
1,good,butv116_00038,72,1.792,0.29587428555137074,0.41753567702678984,0.6796475920381352,0.0051429597660899,0.9999999999999286,0.9285714285713622,0.6415245684517936,0.9495584644591077,0.7241872527981694,0.0032025620496397116,0.9912450700816194
1,good,butv116_00038,72,1.8,0.06978758865928293,0.41753567702678984,0.6796475920381352,0.0051429597660899,0.9999999999999286,0.9285714285713622,0.6415245684517936,0.9495584644591077,0.7241872527981694,0.0032025620496397116,0.9912450700816194
1,good,butv116_00038,72,1.808,0.013558351688431315,0.41753567702678984,0.6796475920381352,0.0051429597660899,0.9999999999999286,0.9285714285713622,0.6415245684517936,0.9495584644591077,0.7241872527981694,0.0032025620496397116,0.9912450700816194
1,good,butv116_00038,72,1.816,-0.14471239125149377,0.41753567702678984,0.6796475920381352,0.0051429597660899,0.9999999999999286,0.9285714285713622,0.6415245684517936,0.9495584644591077,0.7241872527981694,0.0032025620496397116,0.9912450700816194
1,good,butv116_00038,72,1.824,-0.08601032711634178,0.41753567702678984,0.6796475920381352,0.0051429597660899,0.9999999999999286,0.9285714285713622,0.6415245684517936,0.9495584644591077,0.7241872527981694,0.0032025620496397116,0.9912450700816194
1,good,butv116_00038,72,1.832,-0.14271840532709526,0.41753567702678984,0.6796475920381352,0.0051429597660899,0.9999999999999286,0.9285714285713622,0.6415245684517936,0.9495584644591077,0.7241872527981694,0.0032025620496397116,0.9912450700816194
1,good,butv116_00038,72,1.84,-0.10160628964861296,0.41753567702678984,0.6796475920381352,0.0051429597660899,0.9999999999999286,0.9285714285713622,0.6415245684517936,0.9495584644591077,0.7241872527981694,0.0032025620496397116,0.9912450700816194
1,good,butv116_00038,72,1.848,-0.06833704848990912,0.41753567702678984,0.6796475920381352,0.0051429597660899,0.9999999999999286,0.9285714285713622,0.6415245684517936,0.9495584644591077,0.7241872527981694,0.0032025620496397116,0.9912450700816194
1,good,butv116_00038,72,1.856,-0.014225100710514834,0.41753567702678984,0.6796475920381352,0.0051429597660899,0.9999999999999286,0.9285714285713622,0.6415245684517936,0.9495584644591077,0.7241872527981694,0.0032025620496397116,0.9912450700816194
1,good,butv116_00038,72,1.864,0.004796496825992699,0.41753567702678984,0.6796475920381352,0.0051429597660899,0.9999999999999286,0.9285714285713622,0.6415245684517936,0.9495584644591077,0.7241872527981694,0.0032025620496397116,0.9912450700816194
1,good,butv116_00038,72,1.872,0.06062266348987692,0.41753567702678984,0.6796475920381352,0.0051429597660899,0.9999999999999286,0.9285714285713622,0.6415245684517936,0.9495584644591077,0.7241872527981694,0.0032025620496397116,0.9912450700816194
1,good,butv116_00038,72,1.88,0.09115870309049676,0.41753567702678984,0.6796475920381352,0.0051429597660899,0.9999999999999286,0.9285714285713622,0.6415245684517936,0.9495584644591077,0.7241872527981694,0.0032025620496397116,0.9912450700816194
1,good,butv116_00038,72,1.888,0.15131625818746142,0.41753567702678984,0.6796475920381352,0.0051429597660899,0.9999999999999286,0.9285714285713622,0.6415245684517936,0.9495584644591077,0.7241872527981694,0.0032025620496397116,0.9912450700816194
1,good,butv116_00038,72,1.896,0.20383084714165542,0.41753567702678984,0.6796475920381352,0.0051429597660899,0.9999999999999286,0.9285714285713622,0.6415245684517936,0.9495584644591077,0.7241872527981694,0.0032025620496397116,0.9912450700816194
1,good,butv116_00038,72,1.904,0.24570397734613178,0.41753567702678984,0.6796475920381352,0.0051429597660899,0.9999999999999286,0.9285714285713622,0.6415245684517936,0.9495584644591077,0.7241872527981694,0.0032025620496397116,0.9912450700816194
1,good,butv116_00038,72,1.912,0.29824444767069924,0.41753567702678984,0.6796475920381352,0.0051429597660899,0.9999999999999286,0.9285714285713622,0.6415245684517936,0.9495584644591077,0.7241872527981694,0.0032025620496397116,0.9912450700816194
1,good,butv116_00038,72,1.92,0.4221517044045162,0.41753567702678984,0.6796475920381352,0.0051429597660899,0.9999999999999286,0.9285714285713622,0.6415245684517936,0.9495584644591077,0.7241872527981694,0.0032025620496397116,0.9912450700816194
1,good,butv116_00038,72,1.928,0.5281730575308349,0.41753567702678984,0.6796475920381352,0.0051429597660899,0.9999999999999286,0.9285714285713622,0.6415245684517936,0.9495584644591077,0.7241872527981694,0.0032025620496397116,0.9912450700816194
1,good,butv116_00038,72,1.936,0.6129223891026048,0.41753567702678984,0.6796475920381352,0.0051429597660899,0.9999999999999286,0.9285714285713622,0.6415245684517936,0.9495584644591077,0.7241872527981694,0.0032025620496397116,0.9912450700816194
1,good,butv116_00038,72,1.944,0.7570607825376726,0.41753567702678984,0.6796475920381352,0.0051429597660899,0.9999999999999286,0.9285714285713622,0.6415245684517936,0.9495584644591077,0.7241872527981694,0.0032025620496397116,0.9912450700816194
1,good,butv116_00038,72,1.952,0.9231651767831031,0.41753567702678984,0.6796475920381352,0.0051429597660899,0.9999999999999286,0.9285714285713622,0.6415245684517936,0.9495584644591077,0.7241872527981694,0.0032025620496397116,0.9912450700816194
1,good,butv116_00038,72,1.96,1.1405530022409591,0.41753567702678984,0.6796475920381352,0.0051429597660899,0.9999999999999286,0.9285714285713622,0.6415245684517936,0.9495584644591077,0.7241872527981694,0.0032025620496397116,0.9912450700816194
1,good,butv116_00038,72,1.968,1.3099583355943647,0.41753567702678984,0.6796475920381352,0.0051429597660899,0.9999999999999286,0.9285714285713622,0.6415245684517936,0.9495584644591077,0.7241872527981694,0.0032025620496397116,0.9912450700816194
1,good,butv116_00038,72,1.976,1.438894841172252,0.41753567702678984,0.6796475920381352,0.0051429597660899,0.9999999999999286,0.9285714285713622,0.6415245684517936,0.9495584644591077,0.7241872527981694,0.0032025620496397116,0.9912450700816194
1,good,butv116_00038,72,1.984,1.5863654330327586,0.41753567702678984,0.6796475920381352,0.0051429597660899,0.9999999999999286,0.9285714285713622,0.6415245684517936,0.9495584644591077,0.7241872527981694,0.0032025620496397116,0.9912450700816194
1,good,butv116_00038,72,1.992,1.6547536490479162,0.41753567702678984,0.6796475920381352,0.0051429597660899,0.9999999999999286,0.9285714285713622,0.6415245684517936,0.9495584644591077,0.7241872527981694,0.0032025620496397116,0.9912450700816194
1,good,butv116_00038,72,2.0,1.706226092692463,0.41753567702678984,0.6796475920381352,0.0051429597660899,0.9999999999999286,0.9285714285713622,0.6415245684517936,0.9495584644591077,0.7241872527981694,0.0032025620496397116,0.9912450700816194
1,good,butv116_00038,72,2.008,1.8086076400238178,0.41753567702678984,0.6796475920381352,0.0051429597660899,0.9999999999999286,0.9285714285713622,0.6415245684517936,0.9495584644591077,0.7241872527981694,0.0032025620496397116,0.9912450700816194
1,good,butv116_00038,72,2.016,1.7087117126133924,0.41753567702678984,0.6796475920381352,0.0051429597660899,0.9999999999999286,0.9285714285713622,0.6415245684517936,0.9495584644591077,0.7241872527981694,0.0032025620496397116,0.9912450700816194
1,good,butv116_00038,72,2.024,1.4650430921700592,0.41753567702678984,0.6796475920381352,0.0051429597660899,0.9999999999999286,0.9285714285713622,0.6415245684517936,0.9495584644591077,0.7241872527981694,0.0032025620496397116,0.9912450700816194
1,good,butv116_00038,72,2.032,1.1554658254420207,0.41753567702678984,0.6796475920381352,0.0051429597660899,0.9999999999999286,0.9285714285713622,0.6415245684517936,0.9495584644591077,0.7241872527981694,0.0032025620496397116,0.9912450700816194
1,good,butv116_00038,72,2.04,0.8372949353849216,0.41753567702678984,0.6796475920381352,0.0051429597660899,0.9999999999999286,0.9285714285713622,0.6415245684517936,0.9495584644591077,0.7241872527981694,0.0032025620496397116,0.9912450700816194
1,good,butv116_00038,72,2.048,0.6025025605943155,0.41753567702678984,0.6796475920381352,0.0051429597660899,0.9999999999999286,0.9285714285713622,0.6415245684517936,0.9495584644591077,0.7241872527981694,0.0032025620496397116,0.9912450700816194
1,good,butv116_00038,72,2.056,0.3797565912156306,0.41753567702678984,0.6796475920381352,0.0051429597660899,0.9999999999999286,0.9285714285713622,0.6415245684517936,0.9495584644591077,0.7241872527981694,0.0032025620496397116,0.9912450700816194
1,good,butv116_00038,72,2.064,0.23427558768737028,0.41753567702678984,0.6796475920381352,0.0051429597660899,0.9999999999999286,0.9285714285713622,0.6415245684517936,0.9495584644591077,0.7241872527981694,0.0032025620496397116,0.9912450700816194
1,good,butv116_00038,72,2.072,0.14546585004192697,0.41753567702678984,0.6796475920381352,0.0051429597660899,0.9999999999999286,0.9285714285713622,0.6415245684517936,0.9495584644591077,0.7241872527981694,0.0032025620496397116,0.9912450700816194
1,good,butv116_00038,72,2.08,0.07678936065713635,0.41753567702678984,0.6796475920381352,0.0051429597660899,0.9999999999999286,0.9285714285713622,0.6415245684517936,0.9495584644591077,0.7241872527981694,0.0032025620496397116,0.9912450700816194
1,good,butv116_00038,72,2.088,0.04378883478704461,0.41753567702678984,0.6796475920381352,0.0051429597660899,0.9999999999999286,0.9285714285713622,0.6415245684517936,0.9495584644591077,0.7241872527981694,0.0032025620496397116,0.9912450700816194
1,good,butv116_00038,72,2.096,0.051208525092597455,0.41753567702678984,0.6796475920381352,0.0051429597660899,0.9999999999999286,0.9285714285713622,0.6415245684517936,0.9495584644591077,0.7241872527981694,0.0032025620496397116,0.9912450700816194
1,good,butv116_00038,72,2.104,0.03698664554830875,0.41753567702678984,0.6796475920381352,0.0051429597660899,0.9999999999999286,0.9285714285713622,0.6415245684517936,0.9495584644591077,0.7241872527981694,0.0032025620496397116,0.9912450700816194
1,good,butv116_00038,72,2.112,0.020071646957845572,0.41753567702678984,0.6796475920381352,0.0051429597660899,0.9999999999999286,0.9285714285713622,0.6415245684517936,0.9495584644591077,0.7241872527981694,0.0032025620496397116,0.9912450700816194
1,good,butv116_00038,72,2.12,0.01440237426756571,0.41753567702678984,0.6796475920381352,0.0051429597660899,0.9999999999999286,0.9285714285713622,0.6415245684517936,0.9495584644591077,0.7241872527981694,0.0032025620496397116,0.9912450700816194
1,good,butv116_00038,72,2.128,0.01119477282757752,0.41753567702678984,0.6796475920381352,0.0051429597660899,0.9999999999999286,0.9285714285713622,0.6415245684517936,0.9495584644591077,0.7241872527981694,0.0032025620496397116,0.9912450700816194
1,good,butv116_00038,72,2.136,0.021993303695396895,0.41753567702678984,0.6796475920381352,0.0051429597660899,0.9999999999999286,0.9285714285713622,0.6415245684517936,0.9495584644591077,0.7241872527981694,0.0032025620496397116,0.9912450700816194
1,good,butv116_00038,72,2.144,0.05697384193074749,0.41753567702678984,0.6796475920381352,0.0051429597660899,0.9999999999999286,0.9285714285713622,0.6415245684517936,0.9495584644591077,0.7241872527981694,0.0032025620496397116,0.9912450700816194
1,good,butv116_00038,72,2.152,0.061922838219307864,0.41753567702678984,0.6796475920381352,0.0051429597660899,0.9999999999999286,0.9285714285713622,0.6415245684517936,0.9495584644591077,0.7241872527981694,0.0032025620496397116,0.9912450700816194
1,good,butv116_00038,72,2.16,0.058197534969913645,0.41753567702678984,0.6796475920381352,0.0051429597660899,0.9999999999999286,0.9285714285713622,0.6415245684517936,0.9495584644591077,0.7241872527981694,0.0032025620496397116,0.9912450700816194
1,good,butv116_00038,72,2.168,0.06468489022272154,0.41753567702678984,0.6796475920381352,0.0051429597660899,0.9999999999999286,0.9285714285713622,0.6415245684517936,0.9495584644591077,0.7241872527981694,0.0032025620496397116,0.9912450700816194
1,good,butv116_00038,72,2.176,0.049792920571706624,0.41753567702678984,0.6796475920381352,0.0051429597660899,0.9999999999999286,0.9285714285713622,0.6415245684517936,0.9495584644591077,0.7241872527981694,0.0032025620496397116,0.9912450700816194
1,good,butv116_00038,72,2.184,0.09891539740865567,0.41753567702678984,0.6796475920381352,0.0051429597660899,0.9999999999999286,0.9285714285713622,0.6415245684517936,0.9495584644591077,0.7241872527981694,0.0032025620496397116,0.9912450700816194
1,good,butv116_00038,72,2.192,0.07278084336984482,0.41753567702678984,0.6796475920381352,0.0051429597660899,0.9999999999999286,0.9285714285713622,0.6415245684517936,0.9495584644591077,0.7241872527981694,0.0032025620496397116,0.9912450700816194
1,good,butv116_00038,72,2.2,0.0764218465983406,0.41753567702678984,0.6796475920381352,0.0051429597660899,0.9999999999999286,0.9285714285713622,0.6415245684517936,0.9495584644591077,0.7241872527981694,0.0032025620496397116,0.9912450700816194
1,good,butv116_00038,72,2.208,0.06663037658781096,0.41753567702678984,0.6796475920381352,0.0051429597660899,0.9999999999999286,0.9285714285713622,0.6415245684517936,0.9495584644591077,0.7241872527981694,0.0032025620496397116,0.9912450700816194
1,good,butv116_00038,72,2.216,0.06545974876095269,0.41753567702678984,0.6796475920381352,0.0051429597660899,0.9999999999999286,0.9285714285713622,0.6415245684517936,0.9495584644591077,0.7241872527981694,0.0032025620496397116,0.9912450700816194
1,good,butv116_00038,72,2.224,0.07649785911874202,0.41753567702678984,0.6796475920381352,0.0051429597660899,0.9999999999999286,0.9285714285713622,0.6415245684517936,0.9495584644591077,0.7241872527981694,0.0032025620496397116,0.9912450700816194
1,good,butv116_00038,72,2.232,0.05139376315820582,0.41753567702678984,0.6796475920381352,0.0051429597660899,0.9999999999999286,0.9285714285713622,0.6415245684517936,0.9495584644591077,0.7241872527981694,0.0032025620496397116,0.9912450700816194
1,good,butv116_00038,72,2.24,0.07501757217952341,0.41753567702678984,0.6796475920381352,0.0051429597660899,0.9999999999999286,0.9285714285713622,0.6415245684517936,0.9495584644591077,0.7241872527981694,0.0032025620496397116,0.9912450700816194
1,good,butv116_00038,72,2.248,0.07777358799753074,0.41753567702678984,0.6796475920381352,0.0051429597660899,0.9999999999999286,0.9285714285713622,0.6415245684517936,0.9495584644591077,0.7241872527981694,0.0032025620496397116,0.9912450700816194
1,good,butv116_00038,72,2.256,0.04676651585915668,0.41753567702678984,0.6796475920381352,0.0051429597660899,0.9999999999999286,0.9285714285713622,0.6415245684517936,0.9495584644591077,0.7241872527981694,0.0032025620496397116,0.9912450700816194
1,good,butv116_00038,72,2.264,0.0651877772934381,0.41753567702678984,0.6796475920381352,0.0051429597660899,0.9999999999999286,0.9285714285713622,0.6415245684517936,0.9495584644591077,0.7241872527981694,0.0032025620496397116,0.9912450700816194
1,good,butv116_00038,72,2.272,0.05393361771483392,0.41753567702678984,0.6796475920381352,0.0051429597660899,0.9999999999999286,0.9285714285713622,0.6415245684517936,0.9495584644591077,0.7241872527981694,0.0032025620496397116,0.9912450700816194
1,good,butv116_00038,72,2.28,0.03424837415468625,0.41753567702678984,0.6796475920381352,0.0051429597660899,0.9999999999999286,0.9285714285713622,0.6415245684517936,0.9495584644591077,0.7241872527981694,0.0032025620496397116,0.9912450700816194
1,good,butv116_00038,72,2.288,0.026121937220880565,0.41753567702678984,0.6796475920381352,0.0051429597660899,0.9999999999999286,0.9285714285713622,0.6415245684517936,0.9495584644591077,0.7241872527981694,0.0032025620496397116,0.9912450700816194
1,good,butv116_00038,72,2.296,0.03191483879610949,0.41753567702678984,0.6796475920381352,0.0051429597660899,0.9999999999999286,0.9285714285713622,0.6415245684517936,0.9495584644591077,0.7241872527981694,0.0032025620496397116,0.9912450700816194
1,good,butv116_00038,72,2.304,0.26098471375049964,0.41753567702678984,0.6796475920381352,0.0051429597660899,0.9999999999999286,0.9285714285713622,0.6415245684517936,0.9495584644591077,0.7241872527981694,0.0032025620496397116,0.9912450700816194
1,good,butv116_00038,72,2.312,0.3455147259174817,0.41753567702678984,0.6796475920381352,0.0051429597660899,0.9999999999999286,0.9285714285713622,0.6415245684517936,0.9495584644591077,0.7241872527981694,0.0032025620496397116,0.9912450700816194
1,good,butv116_00038,72,2.32,0.3358311999882039,0.41753567702678984,0.6796475920381352,0.0051429597660899,0.9999999999999286,0.9285714285713622,0.6415245684517936,0.9495584644591077,0.7241872527981694,0.0032025620496397116,0.9912450700816194
1,good,butv116_00038,72,2.328,0.44321967208117474,0.41753567702678984,0.6796475920381352,0.0051429597660899,0.9999999999999286,0.9285714285713622,0.6415245684517936,0.9495584644591077,0.7241872527981694,0.0032025620496397116,0.9912450700816194
1,good,butv116_00038,72,2.336,0.5900488037004238,0.41753567702678984,0.6796475920381352,0.0051429597660899,0.9999999999999286,0.9285714285713622,0.6415245684517936,0.9495584644591077,0.7241872527981694,0.0032025620496397116,0.9912450700816194
1,good,butv116_00038,72,2.344,0.6955816599660143,0.41753567702678984,0.6796475920381352,0.0051429597660899,0.9999999999999286,0.9285714285713622,0.6415245684517936,0.9495584644591077,0.7241872527981694,0.0032025620496397116,0.9912450700816194
1,good,butv116_00038,72,2.352,0.7138136288667636,0.41753567702678984,0.6796475920381352,0.0051429597660899,0.9999999999999286,0.9285714285713622,0.6415245684517936,0.9495584644591077,0.7241872527981694,0.0032025620496397116,0.9912450700816194
1,good,butv116_00038,72,2.36,0.7467705849623792,0.41753567702678984,0.6796475920381352,0.0051429597660899,0.9999999999999286,0.9285714285713622,0.6415245684517936,0.9495584644591077,0.7241872527981694,0.0032025620496397116,0.9912450700816194
1,good,butv116_00038,72,2.368,0.6347928193115454,0.41753567702678984,0.6796475920381352,0.0051429597660899,0.9999999999999286,0.9285714285713622,0.6415245684517936,0.9495584644591077,0.7241872527981694,0.0032025620496397116,0.9912450700816194
1,good,butv116_00038,72,2.376,0.22660463241110865,0.41753567702678984,0.6796475920381352,0.0051429597660899,0.9999999999999286,0.9285714285713622,0.6415245684517936,0.9495584644591077,0.7241872527981694,0.0032025620496397116,0.9912450700816194
1,good,butv116_00038,72,2.384,0.04119176251469103,0.41753567702678984,0.6796475920381352,0.0051429597660899,0.9999999999999286,0.9285714285713622,0.6415245684517936,0.9495584644591077,0.7241872527981694,0.0032025620496397116,0.9912450700816194
1,good,butv116_00038,72,2.392,0.01829851049219236,0.41753567702678984,0.6796475920381352,0.0051429597660899,0.9999999999999286,0.9285714285713622,0.6415245684517936,0.9495584644591077,0.7241872527981694,0.0032025620496397116,0.9912450700816194
1,good,butv116_00038,72,2.4,-0.05068613596114226,0.41753567702678984,0.6796475920381352,0.0051429597660899,0.9999999999999286,0.9285714285713622,0.6415245684517936,0.9495584644591077,0.7241872527981694,0.0032025620496397116,0.9912450700816194
1,good,butv116_00038,72,2.408,-0.08510551552849206,0.41753567702678984,0.6796475920381352,0.0051429597660899,0.9999999999999286,0.9285714285713622,0.6415245684517936,0.9495584644591077,0.7241872527981694,0.0032025620496397116,0.9912450700816194
1,good,butv116_00038,72,2.416,-0.09147802570153547,0.41753567702678984,0.6796475920381352,0.0051429597660899,0.9999999999999286,0.9285714285713622,0.6415245684517936,0.9495584644591077,0.7241872527981694,0.0032025620496397116,0.9912450700816194
1,good,butv116_00038,72,2.424,-0.08464848806128623,0.41753567702678984,0.6796475920381352,0.0051429597660899,0.9999999999999286,0.9285714285713622,0.6415245684517936,0.9495584644591077,0.7241872527981694,0.0032025620496397116,0.9912450700816194
1,good,butv116_00038,72,2.432,-0.06343290694104763,0.41753567702678984,0.6796475920381352,0.0051429597660899,0.9999999999999286,0.9285714285713622,0.6415245684517936,0.9495584644591077,0.7241872527981694,0.0032025620496397116,0.9912450700816194
1,good,butv116_00038,72,2.44,-0.057998067752628106,0.41753567702678984,0.6796475920381352,0.0051429597660899,0.9999999999999286,0.9285714285713622,0.6415245684517936,0.9495584644591077,0.7241872527981694,0.0032025620496397116,0.9912450700816194
1,good,butv116_00038,72,2.448,-0.07579351611072206,0.41753567702678984,0.6796475920381352,0.0051429597660899,0.9999999999999286,0.9285714285713622,0.6415245684517936,0.9495584644591077,0.7241872527981694,0.0032025620496397116,0.9912450700816194
1,good,butv116_00038,72,2.456,-0.12375045596395717,0.41753567702678984,0.6796475920381352,0.0051429597660899,0.9999999999999286,0.9285714285713622,0.6415245684517936,0.9495584644591077,0.7241872527981694,0.0032025620496397116,0.9912450700816194
1,good,butv116_00038,72,2.464,-0.19110415943291645,0.41753567702678984,0.6796475920381352,0.0051429597660899,0.9999999999999286,0.9285714285713622,0.6415245684517936,0.9495584644591077,0.7241872527981694,0.0032025620496397116,0.9912450700816194
1,good,butv116_00038,72,2.472,0.7555619038673009,0.41753567702678984,0.6796475920381352,0.0051429597660899,0.9999999999999286,0.9285714285713622,0.6415245684517936,0.9495584644591077,0.7241872527981694,0.0032025620496397116,0.9912450700816194
1,good,butv116_00038,72,2.48,2.5,0.41753567702678984,0.6796475920381352,0.0051429597660899,0.9999999999999286,0.9285714285713622,0.6415245684517936,0.9495584644591077,0.7241872527981694,0.0032025620496397116,0.9912450700816194
1,good,butv116_00038,72,2.488,2.5,0.41753567702678984,0.6796475920381352,0.0051429597660899,0.9999999999999286,0.9285714285713622,0.6415245684517936,0.9495584644591077,0.7241872527981694,0.0032025620496397116,0.9912450700816194
1,good,butv116_00038,72,2.496,2.5,0.41753567702678984,0.6796475920381352,0.0051429597660899,0.9999999999999286,0.9285714285713622,0.6415245684517936,0.9495584644591077,0.7241872527981694,0.0032025620496397116,0.9912450700816194
1,good,butv116_00038,72,2.504,2.5,0.41753567702678984,0.6796475920381352,0.0051429597660899,0.9999999999999286,0.9285714285713622,0.6415245684517936,0.9495584644591077,0.7241872527981694,0.0032025620496397116,0.9912450700816194
1,good,butv116_00038,72,2.512,-0.14671791735402417,0.41753567702678984,0.6796475920381352,0.0051429597660899,0.9999999999999286,0.9285714285713622,0.6415245684517936,0.9495584644591077,0.7241872527981694,0.0032025620496397116,0.9912450700816194
1,good,butv116_00038,72,2.52,0.4165400967169025,0.41753567702678984,0.6796475920381352,0.0051429597660899,0.9999999999999286,0.9285714285713622,0.6415245684517936,0.9495584644591077,0.7241872527981694,0.0032025620496397116,0.9912450700816194
1,good,butv116_00038,72,2.528,0.09685565067549716,0.41753567702678984,0.6796475920381352,0.0051429597660899,0.9999999999999286,0.9285714285713622,0.6415245684517936,0.9495584644591077,0.7241872527981694,0.0032025620496397116,0.9912450700816194
1,good,butv116_00038,72,2.536,0.03322690383043603,0.41753567702678984,0.6796475920381352,0.0051429597660899,0.9999999999999286,0.9285714285713622,0.6415245684517936,0.9495584644591077,0.7241872527981694,0.0032025620496397116,0.9912450700816194
1,good,butv116_00038,72,2.544,-0.10814319133975345,0.41753567702678984,0.6796475920381352,0.0051429597660899,0.9999999999999286,0.9285714285713622,0.6415245684517936,0.9495584644591077,0.7241872527981694,0.0032025620496397116,0.9912450700816194
1,good,butv116_00038,72,2.552,-0.05839835017523947,0.41753567702678984,0.6796475920381352,0.0051429597660899,0.9999999999999286,0.9285714285713622,0.6415245684517936,0.9495584644591077,0.7241872527981694,0.0032025620496397116,0.9912450700816194
1,good,butv116_00038,72,2.56,-0.09269351877189555,0.41753567702678984,0.6796475920381352,0.0051429597660899,0.9999999999999286,0.9285714285713622,0.6415245684517936,0.9495584644591077,0.7241872527981694,0.0032025620496397116,0.9912450700816194
1,good,butv116_00038,72,2.568,-0.08413470504568303,0.41753567702678984,0.6796475920381352,0.0051429597660899,0.9999999999999286,0.9285714285713622,0.6415245684517936,0.9495584644591077,0.7241872527981694,0.0032025620496397116,0.9912450700816194
1,good,butv116_00038,72,2.576,-0.06043444234424174,0.41753567702678984,0.6796475920381352,0.0051429597660899,0.9999999999999286,0.9285714285713622,0.6415245684517936,0.9495584644591077,0.7241872527981694,0.0032025620496397116,0.9912450700816194
1,good,butv116_00038,72,2.584,0.01151429763682228,0.41753567702678984,0.6796475920381352,0.0051429597660899,0.9999999999999286,0.9285714285713622,0.6415245684517936,0.9495584644591077,0.7241872527981694,0.0032025620496397116,0.9912450700816194
1,good,butv116_00038,72,2.592,0.031041360052344178,0.41753567702678984,0.6796475920381352,0.0051429597660899,0.9999999999999286,0.9285714285713622,0.6415245684517936,0.9495584644591077,0.7241872527981694,0.0032025620496397116,0.9912450700816194
1,good,butv116_00038,72,2.6,0.07133563212981468,0.41753567702678984,0.6796475920381352,0.0051429597660899,0.9999999999999286,0.9285714285713622,0.6415245684517936,0.9495584644591077,0.7241872527981694,0.0032025620496397116,0.9912450700816194
1,good,butv116_00038,72,2.608,0.09597464770757973,0.41753567702678984,0.6796475920381352,0.0051429597660899,0.9999999999999286,0.9285714285713622,0.6415245684517936,0.9495584644591077,0.7241872527981694,0.0032025620496397116,0.9912450700816194
1,good,butv116_00038,72,2.616,0.1141348896395154,0.41753567702678984,0.6796475920381352,0.0051429597660899,0.9999999999999286,0.9285714285713622,0.6415245684517936,0.9495584644591077,0.7241872527981694,0.0032025620496397116,0.9912450700816194
1,good,butv116_00038,72,2.624,0.19032578562197766,0.41753567702678984,0.6796475920381352,0.0051429597660899,0.9999999999999286,0.9285714285713622,0.6415245684517936,0.9495584644591077,0.7241872527981694,0.0032025620496397116,0.9912450700816194
1,good,butv116_00038,72,2.632,0.28065945700900363,0.41753567702678984,0.6796475920381352,0.0051429597660899,0.9999999999999286,0.9285714285713622,0.6415245684517936,0.9495584644591077,0.7241872527981694,0.0032025620496397116,0.9912450700816194
1,good,butv116_00038,72,2.64,0.3270365198663505,0.41753567702678984,0.6796475920381352,0.0051429597660899,0.9999999999999286,0.9285714285713622,0.6415245684517936,0.9495584644591077,0.7241872527981694,0.0032025620496397116,0.9912450700816194
1,good,butv116_00038,72,2.648,0.3880224678837176,0.41753567702678984,0.6796475920381352,0.0051429597660899,0.9999999999999286,0.9285714285713622,0.6415245684517936,0.9495584644591077,0.7241872527981694,0.0032025620496397116,0.9912450700816194
1,good,butv116_00038,72,2.656,0.48027235503838683,0.41753567702678984,0.6796475920381352,0.0051429597660899,0.9999999999999286,0.9285714285713622,0.6415245684517936,0.9495584644591077,0.7241872527981694,0.0032025620496397116,0.9912450700816194
1,good,butv116_00038,72,2.664,0.6654826906070688,0.41753567702678984,0.6796475920381352,0.0051429597660899,0.9999999999999286,0.9285714285713622,0.6415245684517936,0.9495584644591077,0.7241872527981694,0.0032025620496397116,0.9912450700816194
1,good,butv116_00038,72,2.672,0.8193845789242458,0.41753567702678984,0.6796475920381352,0.0051429597660899,0.9999999999999286,0.9285714285713622,0.6415245684517936,0.9495584644591077,0.7241872527981694,0.0032025620496397116,0.9912450700816194
1,good,butv116_00038,72,2.68,0.9589772625809971,0.41753567702678984,0.6796475920381352,0.0051429597660899,0.9999999999999286,0.9285714285713622,0.6415245684517936,0.9495584644591077,0.7241872527981694,0.0032025620496397116,0.9912450700816194
1,good,butv116_00038,72,2.688,1.1057989154925731,0.41753567702678984,0.6796475920381352,0.0051429597660899,0.9999999999999286,0.9285714285713622,0.6415245684517936,0.9495584644591077,0.7241872527981694,0.0032025620496397116,0.9912450700816194
1,good,butv116_00038,72,2.696,1.2713525183234764,0.41753567702678984,0.6796475920381352,0.0051429597660899,0.9999999999999286,0.9285714285713622,0.6415245684517936,0.9495584644591077,0.7241872527981694,0.0032025620496397116,0.9912450700816194
1,good,butv116_00038,72,2.704,1.4497725234469094,0.41753567702678984,0.6796475920381352,0.0051429597660899,0.9999999999999286,0.9285714285713622,0.6415245684517936,0.9495584644591077,0.7241872527981694,0.0032025620496397116,0.9912450700816194
1,good,butv116_00038,72,2.712,1.5760482897017303,0.41753567702678984,0.6796475920381352,0.0051429597660899,0.9999999999999286,0.9285714285713622,0.6415245684517936,0.9495584644591077,0.7241872527981694,0.0032025620496397116,0.9912450700816194
1,good,butv116_00038,72,2.72,1.658531993000745,0.41753567702678984,0.6796475920381352,0.0051429597660899,0.9999999999999286,0.9285714285713622,0.6415245684517936,0.9495584644591077,0.7241872527981694,0.0032025620496397116,0.9912450700816194
1,good,butv116_00038,72,2.728,1.7598602469862958,0.41753567702678984,0.6796475920381352,0.0051429597660899,0.9999999999999286,0.9285714285713622,0.6415245684517936,0.9495584644591077,0.7241872527981694,0.0032025620496397116,0.9912450700816194
1,good,butv116_00038,72,2.736,1.7722250436720641,0.41753567702678984,0.6796475920381352,0.0051429597660899,0.9999999999999286,0.9285714285713622,0.6415245684517936,0.9495584644591077,0.7241872527981694,0.0032025620496397116,0.9912450700816194
1,good,butv116_00038,72,2.744,1.6829296101800024,0.41753567702678984,0.6796475920381352,0.0051429597660899,0.9999999999999286,0.9285714285713622,0.6415245684517936,0.9495584644591077,0.7241872527981694,0.0032025620496397116,0.9912450700816194
1,good,butv116_00038,72,2.752,1.4857591684441187,0.41753567702678984,0.6796475920381352,0.0051429597660899,0.9999999999999286,0.9285714285713622,0.6415245684517936,0.9495584644591077,0.7241872527981694,0.0032025620496397116,0.9912450700816194
1,good,butv116_00038,72,2.76,1.1840357211984922,0.41753567702678984,0.6796475920381352,0.0051429597660899,0.9999999999999286,0.9285714285713622,0.6415245684517936,0.9495584644591077,0.7241872527981694,0.0032025620496397116,0.9912450700816194
1,good,butv116_00038,72,2.768,0.8799943227365418,0.41753567702678984,0.6796475920381352,0.0051429597660899,0.9999999999999286,0.9285714285713622,0.6415245684517936,0.9495584644591077,0.7241872527981694,0.0032025620496397116,0.9912450700816194
1,good,butv116_00038,72,2.776,0.5946713733059097,0.41753567702678984,0.6796475920381352,0.0051429597660899,0.9999999999999286,0.9285714285713622,0.6415245684517936,0.9495584644591077,0.7241872527981694,0.0032025620496397116,0.9912450700816194
1,good,butv116_00038,72,2.784,0.4134120081896359,0.41753567702678984,0.6796475920381352,0.0051429597660899,0.9999999999999286,0.9285714285713622,0.6415245684517936,0.9495584644591077,0.7241872527981694,0.0032025620496397116,0.9912450700816194
1,good,butv116_00038,72,2.792,0.2339586949560717,0.41753567702678984,0.6796475920381352,0.0051429597660899,0.9999999999999286,0.9285714285713622,0.6415245684517936,0.9495584644591077,0.7241872527981694,0.0032025620496397116,0.9912450700816194
1,good,butv116_00038,72,2.8,0.16830826015706732,0.41753567702678984,0.6796475920381352,0.0051429597660899,0.9999999999999286,0.9285714285713622,0.6415245684517936,0.9495584644591077,0.7241872527981694,0.0032025620496397116,0.9912450700816194
1,good,butv116_00038,72,2.808,0.10805197631527173,0.41753567702678984,0.6796475920381352,0.0051429597660899,0.9999999999999286,0.9285714285713622,0.6415245684517936,0.9495584644591077,0.7241872527981694,0.0032025620496397116,0.9912450700816194
1,good,butv116_00038,72,2.816,0.06463440194339458,0.41753567702678984,0.6796475920381352,0.0051429597660899,0.9999999999999286,0.9285714285713622,0.6415245684517936,0.9495584644591077,0.7241872527981694,0.0032025620496397116,0.9912450700816194
1,good,butv116_00038,72,2.824,0.03941704347606585,0.41753567702678984,0.6796475920381352,0.0051429597660899,0.9999999999999286,0.9285714285713622,0.6415245684517936,0.9495584644591077,0.7241872527981694,0.0032025620496397116,0.9912450700816194
1,good,butv116_00038,72,2.832,0.03826808149334594,0.41753567702678984,0.6796475920381352,0.0051429597660899,0.9999999999999286,0.9285714285713622,0.6415245684517936,0.9495584644591077,0.7241872527981694,0.0032025620496397116,0.9912450700816194
1,good,butv116_00038,72,2.84,0.05798342545136976,0.41753567702678984,0.6796475920381352,0.0051429597660899,0.9999999999999286,0.9285714285713622,0.6415245684517936,0.9495584644591077,0.7241872527981694,0.0032025620496397116,0.9912450700816194
1,good,butv116_00038,72,2.848,0.07964774653831717,0.41753567702678984,0.6796475920381352,0.0051429597660899,0.9999999999999286,0.9285714285713622,0.6415245684517936,0.9495584644591077,0.7241872527981694,0.0032025620496397116,0.9912450700816194
1,good,butv116_00038,72,2.856,0.05366287869352759,0.41753567702678984,0.6796475920381352,0.0051429597660899,0.9999999999999286,0.9285714285713622,0.6415245684517936,0.9495584644591077,0.7241872527981694,0.0032025620496397116,0.9912450700816194
1,good,butv116_00038,72,2.864,0.10128770230377802,0.41753567702678984,0.6796475920381352,0.0051429597660899,0.9999999999999286,0.9285714285713622,0.6415245684517936,0.9495584644591077,0.7241872527981694,0.0032025620496397116,0.9912450700816194
1,good,butv116_00038,72,2.872,0.08705044869329483,0.41753567702678984,0.6796475920381352,0.0051429597660899,0.9999999999999286,0.9285714285713622,0.6415245684517936,0.9495584644591077,0.7241872527981694,0.0032025620496397116,0.9912450700816194
1,good,butv116_00038,72,2.88,0.09149108542982186,0.41753567702678984,0.6796475920381352,0.0051429597660899,0.9999999999999286,0.9285714285713622,0.6415245684517936,0.9495584644591077,0.7241872527981694,0.0032025620496397116,0.9912450700816194
1,good,butv116_00038,72,2.888,0.13576008406061824,0.41753567702678984,0.6796475920381352,0.0051429597660899,0.9999999999999286,0.9285714285713622,0.6415245684517936,0.9495584644591077,0.7241872527981694,0.0032025620496397116,0.9912450700816194
1,good,butv116_00038,72,2.896,0.10579096971579749,0.41753567702678984,0.6796475920381352,0.0051429597660899,0.9999999999999286,0.9285714285713622,0.6415245684517936,0.9495584644591077,0.7241872527981694,0.0032025620496397116,0.9912450700816194
1,good,butv116_00038,72,2.904,0.08456321818925233,0.41753567702678984,0.6796475920381352,0.0051429597660899,0.9999999999999286,0.9285714285713622,0.6415245684517936,0.9495584644591077,0.7241872527981694,0.0032025620496397116,0.9912450700816194
1,good,butv116_00038,72,2.912,0.11520554927279923,0.41753567702678984,0.6796475920381352,0.0051429597660899,0.9999999999999286,0.9285714285713622,0.6415245684517936,0.9495584644591077,0.7241872527981694,0.0032025620496397116,0.9912450700816194
1,good,butv116_00038,72,2.92,0.12296169039067148,0.41753567702678984,0.6796475920381352,0.0051429597660899,0.9999999999999286,0.9285714285713622,0.6415245684517936,0.9495584644591077,0.7241872527981694,0.0032025620496397116,0.9912450700816194
1,good,butv116_00038,72,2.928,0.10573205738653565,0.41753567702678984,0.6796475920381352,0.0051429597660899,0.9999999999999286,0.9285714285713622,0.6415245684517936,0.9495584644591077,0.7241872527981694,0.0032025620496397116,0.9912450700816194
1,good,butv116_00038,72,2.936,0.1115413536474753,0.41753567702678984,0.6796475920381352,0.0051429597660899,0.9999999999999286,0.9285714285713622,0.6415245684517936,0.9495584644591077,0.7241872527981694,0.0032025620496397116,0.9912450700816194
1,good,butv116_00038,72,2.944,0.10676395098454153,0.41753567702678984,0.6796475920381352,0.0051429597660899,0.9999999999999286,0.9285714285713622,0.6415245684517936,0.9495584644591077,0.7241872527981694,0.0032025620496397116,0.9912450700816194
1,good,butv116_00038,72,2.952,0.10626735919303648,0.41753567702678984,0.6796475920381352,0.0051429597660899,0.9999999999999286,0.9285714285713622,0.6415245684517936,0.9495584644591077,0.7241872527981694,0.0032025620496397116,0.9912450700816194
1,good,butv116_00038,72,2.96,0.12184762904375818,0.41753567702678984,0.6796475920381352,0.0051429597660899,0.9999999999999286,0.9285714285713622,0.6415245684517936,0.9495584644591077,0.7241872527981694,0.0032025620496397116,0.9912450700816194
1,good,butv116_00038,72,2.968,0.09551638079163037,0.41753567702678984,0.6796475920381352,0.0051429597660899,0.9999999999999286,0.9285714285713622,0.6415245684517936,0.9495584644591077,0.7241872527981694,0.0032025620496397116,0.9912450700816194
1,good,butv116_00038,72,2.976,0.05951258658553463,0.41753567702678984,0.6796475920381352,0.0051429597660899,0.9999999999999286,0.9285714285713622,0.6415245684517936,0.9495584644591077,0.7241872527981694,0.0032025620496397116,0.9912450700816194
1,good,butv116_00038,72,2.984,0.06116842008154211,0.41753567702678984,0.6796475920381352,0.0051429597660899,0.9999999999999286,0.9285714285713622,0.6415245684517936,0.9495584644591077,0.7241872527981694,0.0032025620496397116,0.9912450700816194
1,good,butv116_00038,72,2.992,0.05556801995163471,0.41753567702678984,0.6796475920381352,0.0051429597660899,0.9999999999999286,0.9285714285713622,0.6415245684517936,0.9495584644591077,0.7241872527981694,0.0032025620496397116,0.9912450700816194
1,good,butv116_00038,72,3.0,0.07507988073839324,0.41753567702678984,0.6796475920381352,0.0051429597660899,0.9999999999999286,0.9285714285713622,0.6415245684517936,0.9495584644591077,0.7241872527981694,0.0032025620496397116,0.9912450700816194
1,good,butv116_00038,72,3.008,0.01832211078670023,0.41753567702678984,0.6796475920381352,0.0051429597660899,0.9999999999999286,0.9285714285713622,0.6415245684517936,0.9495584644591077,0.7241872527981694,0.0032025620496397116,0.9912450700816194
1,good,butv116_00038,72,3.016,-0.02696754062235311,0.41753567702678984,0.6796475920381352,0.0051429597660899,0.9999999999999286,0.9285714285713622,0.6415245684517936,0.9495584644591077,0.7241872527981694,0.0032025620496397116,0.9912450700816194
1,good,butv116_00038,72,3.024,-0.031143789637067515,0.41753567702678984,0.6796475920381352,0.0051429597660899,0.9999999999999286,0.9285714285713622,0.6415245684517936,0.9495584644591077,0.7241872527981694,0.0032025620496397116,0.9912450700816194
1,good,butv116_00038,72,3.032,0.0037190390439329917,0.41753567702678984,0.6796475920381352,0.0051429597660899,0.9999999999999286,0.9285714285713622,0.6415245684517936,0.9495584644591077,0.7241872527981694,0.0032025620496397116,0.9912450700816194
1,good,butv116_00038,72,3.04,0.014718150969804956,0.41753567702678984,0.6796475920381352,0.0051429597660899,0.9999999999999286,0.9285714285713622,0.6415245684517936,0.9495584644591077,0.7241872527981694,0.0032025620496397116,0.9912450700816194
1,good,butv116_00038,72,3.048,0.021875356492505934,0.41753567702678984,0.6796475920381352,0.0051429597660899,0.9999999999999286,0.9285714285713622,0.6415245684517936,0.9495584644591077,0.7241872527981694,0.0032025620496397116,0.9912450700816194
1,good,butv116_00038,72,3.056,-0.03241626233695374,0.41753567702678984,0.6796475920381352,0.0051429597660899,0.9999999999999286,0.9285714285713622,0.6415245684517936,0.9495584644591077,0.7241872527981694,0.0032025620496397116,0.9912450700816194
1,good,butv116_00038,72,3.064,-0.06380613506862713,0.41753567702678984,0.6796475920381352,0.0051429597660899,0.9999999999999286,0.9285714285713622,0.6415245684517936,0.9495584644591077,0.7241872527981694,0.0032025620496397116,0.9912450700816194
1,good,butv116_00038,72,3.072,0.10393912825492993,0.41753567702678984,0.6796475920381352,0.0051429597660899,0.9999999999999286,0.9285714285713622,0.6415245684517936,0.9495584644591077,0.7241872527981694,0.0032025620496397116,0.9912450700816194
1,good,butv116_00038,72,3.08,0.3266733963971717,0.41753567702678984,0.6796475920381352,0.0051429597660899,0.9999999999999286,0.9285714285713622,0.6415245684517936,0.9495584644591077,0.7241872527981694,0.0032025620496397116,0.9912450700816194
1,good,butv116_00038,72,3.088,0.30961132705961214,0.41753567702678984,0.6796475920381352,0.0051429597660899,0.9999999999999286,0.9285714285713622,0.6415245684517936,0.9495584644591077,0.7241872527981694,0.0032025620496397116,0.9912450700816194
1,good,butv116_00038,72,3.096,0.32819345073421247,0.41753567702678984,0.6796475920381352,0.0051429597660899,0.9999999999999286,0.9285714285713622,0.6415245684517936,0.9495584644591077,0.7241872527981694,0.0032025620496397116,0.9912450700816194
1,good,butv116_00038,72,3.104,0.49878963523634806,0.41753567702678984,0.6796475920381352,0.0051429597660899,0.9999999999999286,0.9285714285713622,0.6415245684517936,0.9495584644591077,0.7241872527981694,0.0032025620496397116,0.9912450700816194
1,good,butv116_00038,72,3.112,0.5859244224644853,0.41753567702678984,0.6796475920381352,0.0051429597660899,0.9999999999999286,0.9285714285713622,0.6415245684517936,0.9495584644591077,0.7241872527981694,0.0032025620496397116,0.9912450700816194
1,good,butv116_00038,72,3.12,0.6288531008311238,0.41753567702678984,0.6796475920381352,0.0051429597660899,0.9999999999999286,0.9285714285713622,0.6415245684517936,0.9495584644591077,0.7241872527981694,0.0032025620496397116,0.9912450700816194
1,good,butv116_00038,72,3.128,0.688473806561292,0.41753567702678984,0.6796475920381352,0.0051429597660899,0.9999999999999286,0.9285714285713622,0.6415245684517936,0.9495584644591077,0.7241872527981694,0.0032025620496397116,0.9912450700816194
1,good,butv116_00038,72,3.136,0.5846686157985517,0.41753567702678984,0.6796475920381352,0.0051429597660899,0.9999999999999286,0.9285714285713622,0.6415245684517936,0.9495584644591077,0.7241872527981694,0.0032025620496397116,0.9912450700816194
1,good,butv116_00038,72,3.144,0.2233387199845753,0.41753567702678984,0.6796475920381352,0.0051429597660899,0.9999999999999286,0.9285714285713622,0.6415245684517936,0.9495584644591077,0.7241872527981694,0.0032025620496397116,0.9912450700816194
1,good,butv116_00038,72,3.152,-0.03803681226211263,0.41753567702678984,0.6796475920381352,0.0051429597660899,0.9999999999999286,0.9285714285713622,0.6415245684517936,0.9495584644591077,0.7241872527981694,0.0032025620496397116,0.9912450700816194
1,good,butv116_00038,72,3.16,-0.1034373475847867,0.41753567702678984,0.6796475920381352,0.0051429597660899,0.9999999999999286,0.9285714285713622,0.6415245684517936,0.9495584644591077,0.7241872527981694,0.0032025620496397116,0.9912450700816194
1,good,butv116_00038,72,3.168,-0.13239869906815646,0.41753567702678984,0.6796475920381352,0.0051429597660899,0.9999999999999286,0.9285714285713622,0.6415245684517936,0.9495584644591077,0.7241872527981694,0.0032025620496397116,0.9912450700816194
1,good,butv116_00038,72,3.176,-0.15056379375703716,0.41753567702678984,0.6796475920381352,0.0051429597660899,0.9999999999999286,0.9285714285713622,0.6415245684517936,0.9495584644591077,0.7241872527981694,0.0032025620496397116,0.9912450700816194
1,good,butv116_00038,72,3.184,-0.17616387228850955,0.41753567702678984,0.6796475920381352,0.0051429597660899,0.9999999999999286,0.9285714285713622,0.6415245684517936,0.9495584644591077,0.7241872527981694,0.0032025620496397116,0.9912450700816194
1,good,butv116_00038,72,3.192,-0.21519895897677663,0.41753567702678984,0.6796475920381352,0.0051429597660899,0.9999999999999286,0.9285714285713622,0.6415245684517936,0.9495584644591077,0.7241872527981694,0.0032025620496397116,0.9912450700816194
1,good,butv116_00038,72,3.2,-0.18245065042219097,0.41753567702678984,0.6796475920381352,0.0051429597660899,0.9999999999999286,0.9285714285713622,0.6415245684517936,0.9495584644591077,0.7241872527981694,0.0032025620496397116,0.9912450700816194
1,good,butv116_00038,72,3.208,-0.17425580747192546,0.41753567702678984,0.6796475920381352,0.0051429597660899,0.9999999999999286,0.9285714285713622,0.6415245684517936,0.9495584644591077,0.7241872527981694,0.0032025620496397116,0.9912450700816194
1,good,butv116_00038,72,3.216,-0.17358852188057655,0.41753567702678984,0.6796475920381352,0.0051429597660899,0.9999999999999286,0.9285714285713622,0.6415245684517936,0.9495584644591077,0.7241872527981694,0.0032025620496397116,0.9912450700816194
1,good,butv116_00038,72,3.224,-0.2568387927160578,0.41753567702678984,0.6796475920381352,0.0051429597660899,0.9999999999999286,0.9285714285713622,0.6415245684517936,0.9495584644591077,0.7241872527981694,0.0032025620496397116,0.9912450700816194
1,good,butv116_00038,72,3.232,-0.39082205347620097,0.41753567702678984,0.6796475920381352,0.0051429597660899,0.9999999999999286,0.9285714285713622,0.6415245684517936,0.9495584644591077,0.7241872527981694,0.0032025620496397116,0.9912450700816194
1,good,butv116_00038,72,3.24,0.3402015942933954,0.41753567702678984,0.6796475920381352,0.0051429597660899,0.9999999999999286,0.9285714285713622,0.6415245684517936,0.9495584644591077,0.7241872527981694,0.0032025620496397116,0.9912450700816194
1,good,butv116_00038,72,3.248,2.5,0.41753567702678984,0.6796475920381352,0.0051429597660899,0.9999999999999286,0.9285714285713622,0.6415245684517936,0.9495584644591077,0.7241872527981694,0.0032025620496397116,0.9912450700816194
1,good,butv116_00038,72,3.256,2.5,0.41753567702678984,0.6796475920381352,0.0051429597660899,0.9999999999999286,0.9285714285713622,0.6415245684517936,0.9495584644591077,0.7241872527981694,0.0032025620496397116,0.9912450700816194
1,good,butv116_00038,72,3.264,2.5,0.41753567702678984,0.6796475920381352,0.0051429597660899,0.9999999999999286,0.9285714285713622,0.6415245684517936,0.9495584644591077,0.7241872527981694,0.0032025620496397116,0.9912450700816194
1,good,butv116_00038,72,3.272,2.5,0.41753567702678984,0.6796475920381352,0.0051429597660899,0.9999999999999286,0.9285714285713622,0.6415245684517936,0.9495584644591077,0.7241872527981694,0.0032025620496397116,0.9912450700816194
1,good,butv116_00038,72,3.28,-0.26744318004403383,0.41753567702678984,0.6796475920381352,0.0051429597660899,0.9999999999999286,0.9285714285713622,0.6415245684517936,0.9495584644591077,0.7241872527981694,0.0032025620496397116,0.9912450700816194
1,good,butv116_00038,72,3.288,0.2024212087808182,0.41753567702678984,0.6796475920381352,0.0051429597660899,0.9999999999999286,0.9285714285713622,0.6415245684517936,0.9495584644591077,0.7241872527981694,0.0032025620496397116,0.9912450700816194
1,good,butv116_00038,72,3.296,8.304354450565248e-05,0.41753567702678984,0.6796475920381352,0.0051429597660899,0.9999999999999286,0.9285714285713622,0.6415245684517936,0.9495584644591077,0.7241872527981694,0.0032025620496397116,0.9912450700816194
1,good,butv116_00038,72,3.304,-0.07613213070644119,0.41753567702678984,0.6796475920381352,0.0051429597660899,0.9999999999999286,0.9285714285713622,0.6415245684517936,0.9495584644591077,0.7241872527981694,0.0032025620496397116,0.9912450700816194
1,good,butv116_00038,72,3.312,-0.24708535347460234,0.41753567702678984,0.6796475920381352,0.0051429597660899,0.9999999999999286,0.9285714285713622,0.6415245684517936,0.9495584644591077,0.7241872527981694,0.0032025620496397116,0.9912450700816194
1,good,butv116_00038,72,3.32,-0.16386394708952134,0.41753567702678984,0.6796475920381352,0.0051429597660899,0.9999999999999286,0.9285714285713622,0.6415245684517936,0.9495584644591077,0.7241872527981694,0.0032025620496397116,0.9912450700816194
1,good,butv116_00038,72,3.328,-0.23445558085405827,0.41753567702678984,0.6796475920381352,0.0051429597660899,0.9999999999999286,0.9285714285713622,0.6415245684517936,0.9495584644591077,0.7241872527981694,0.0032025620496397116,0.9912450700816194
1,good,butv116_00038,72,3.336,-0.20194023264297462,0.41753567702678984,0.6796475920381352,0.0051429597660899,0.9999999999999286,0.9285714285713622,0.6415245684517936,0.9495584644591077,0.7241872527981694,0.0032025620496397116,0.9912450700816194
1,good,butv116_00038,72,3.344,-0.1488929748355429,0.41753567702678984,0.6796475920381352,0.0051429597660899,0.9999999999999286,0.9285714285713622,0.6415245684517936,0.9495584644591077,0.7241872527981694,0.0032025620496397116,0.9912450700816194
1,good,butv116_00038,72,3.352,-0.1526445691036241,0.41753567702678984,0.6796475920381352,0.0051429597660899,0.9999999999999286,0.9285714285713622,0.6415245684517936,0.9495584644591077,0.7241872527981694,0.0032025620496397116,0.9912450700816194
1,good,butv116_00038,72,3.36,-0.10524328042439662,0.41753567702678984,0.6796475920381352,0.0051429597660899,0.9999999999999286,0.9285714285713622,0.6415245684517936,0.9495584644591077,0.7241872527981694,0.0032025620496397116,0.9912450700816194
1,good,butv116_00038,72,3.368,-0.05705331370357437,0.41753567702678984,0.6796475920381352,0.0051429597660899,0.9999999999999286,0.9285714285713622,0.6415245684517936,0.9495584644591077,0.7241872527981694,0.0032025620496397116,0.9912450700816194
1,good,butv116_00038,72,3.376,-0.03408954965213215,0.41753567702678984,0.6796475920381352,0.0051429597660899,0.9999999999999286,0.9285714285713622,0.6415245684517936,0.9495584644591077,0.7241872527981694,0.0032025620496397116,0.9912450700816194
1,good,butv116_00038,72,3.384,0.023011612374970812,0.41753567702678984,0.6796475920381352,0.0051429597660899,0.9999999999999286,0.9285714285713622,0.6415245684517936,0.9495584644591077,0.7241872527981694,0.0032025620496397116,0.9912450700816194
1,good,butv116_00038,72,3.392,0.04757932463730633,0.41753567702678984,0.6796475920381352,0.0051429597660899,0.9999999999999286,0.9285714285713622,0.6415245684517936,0.9495584644591077,0.7241872527981694,0.0032025620496397116,0.9912450700816194
1,good,butv116_00038,72,3.4,0.12553706880874557,0.41753567702678984,0.6796475920381352,0.0051429597660899,0.9999999999999286,0.9285714285713622,0.6415245684517936,0.9495584644591077,0.7241872527981694,0.0032025620496397116,0.9912450700816194
1,good,butv116_00038,72,3.408,0.18106482068128602,0.41753567702678984,0.6796475920381352,0.0051429597660899,0.9999999999999286,0.9285714285713622,0.6415245684517936,0.9495584644591077,0.7241872527981694,0.0032025620496397116,0.9912450700816194
1,good,butv116_00038,72,3.416,0.25591879963173364,0.41753567702678984,0.6796475920381352,0.0051429597660899,0.9999999999999286,0.9285714285713622,0.6415245684517936,0.9495584644591077,0.7241872527981694,0.0032025620496397116,0.9912450700816194
1,good,butv116_00038,72,3.424,0.39269293483047907,0.41753567702678984,0.6796475920381352,0.0051429597660899,0.9999999999999286,0.9285714285713622,0.6415245684517936,0.9495584644591077,0.7241872527981694,0.0032025620496397116,0.9912450700816194
1,good,butv116_00038,72,3.432,0.517725555003142,0.41753567702678984,0.6796475920381352,0.0051429597660899,0.9999999999999286,0.9285714285713622,0.6415245684517936,0.9495584644591077,0.7241872527981694,0.0032025620496397116,0.9912450700816194
1,good,butv116_00038,72,3.44,0.6360484018963503,0.41753567702678984,0.6796475920381352,0.0051429597660899,0.9999999999999286,0.9285714285713622,0.6415245684517936,0.9495584644591077,0.7241872527981694,0.0032025620496397116,0.9912450700816194
1,good,butv116_00038,72,3.448,0.7837164652515892,0.41753567702678984,0.6796475920381352,0.0051429597660899,0.9999999999999286,0.9285714285713622,0.6415245684517936,0.9495584644591077,0.7241872527981694,0.0032025620496397116,0.9912450700816194
1,good,butv116_00038,72,3.456,0.958457506402805,0.41753567702678984,0.6796475920381352,0.0051429597660899,0.9999999999999286,0.9285714285713622,0.6415245684517936,0.9495584644591077,0.7241872527981694,0.0032025620496397116,0.9912450700816194
1,good,butv116_00038,72,3.464,1.1534690385035125,0.41753567702678984,0.6796475920381352,0.0051429597660899,0.9999999999999286,0.9285714285713622,0.6415245684517936,0.9495584644591077,0.7241872527981694,0.0032025620496397116,0.9912450700816194
1,good,butv116_00038,72,3.472,1.2725091130696453,0.41753567702678984,0.6796475920381352,0.0051429597660899,0.9999999999999286,0.9285714285713622,0.6415245684517936,0.9495584644591077,0.7241872527981694,0.0032025620496397116,0.9912450700816194
1,good,butv116_00038,72,3.48,1.4279277505272134,0.41753567702678984,0.6796475920381352,0.0051429597660899,0.9999999999999286,0.9285714285713622,0.6415245684517936,0.9495584644591077,0.7241872527981694,0.0032025620496397116,0.9912450700816194
1,good,butv116_00038,72,3.488,1.478443703873587,0.41753567702678984,0.6796475920381352,0.0051429597660899,0.9999999999999286,0.9285714285713622,0.6415245684517936,0.9495584644591077,0.7241872527981694,0.0032025620496397116,0.9912450700816194
1,good,butv116_00038,72,3.496,1.567853866903581,0.41753567702678984,0.6796475920381352,0.0051429597660899,0.9999999999999286,0.9285714285713622,0.6415245684517936,0.9495584644591077,0.7241872527981694,0.0032025620496397116,0.9912450700816194
1,good,butv116_00038,72,3.504,1.5985715802793548,0.41753567702678984,0.6796475920381352,0.0051429597660899,0.9999999999999286,0.9285714285713622,0.6415245684517936,0.9495584644591077,0.7241872527981694,0.0032025620496397116,0.9912450700816194
1,good,butv116_00038,72,3.512,1.5424725335690042,0.41753567702678984,0.6796475920381352,0.0051429597660899,0.9999999999999286,0.9285714285713622,0.6415245684517936,0.9495584644591077,0.7241872527981694,0.0032025620496397116,0.9912450700816194
1,good,butv116_00038,72,3.52,1.3491353356624987,0.41753567702678984,0.6796475920381352,0.0051429597660899,0.9999999999999286,0.9285714285713622,0.6415245684517936,0.9495584644591077,0.7241872527981694,0.0032025620496397116,0.9912450700816194
1,good,butv116_00038,72,3.528,1.0364482710293297,0.41753567702678984,0.6796475920381352,0.0051429597660899,0.9999999999999286,0.9285714285713622,0.6415245684517936,0.9495584644591077,0.7241872527981694,0.0032025620496397116,0.9912450700816194
1,good,butv116_00038,72,3.536,0.745120731631496,0.41753567702678984,0.6796475920381352,0.0051429597660899,0.9999999999999286,0.9285714285713622,0.6415245684517936,0.9495584644591077,0.7241872527981694,0.0032025620496397116,0.9912450700816194
1,good,butv116_00038,72,3.544,0.40379808746098356,0.41753567702678984,0.6796475920381352,0.0051429597660899,0.9999999999999286,0.9285714285713622,0.6415245684517936,0.9495584644591077,0.7241872527981694,0.0032025620496397116,0.9912450700816194
1,good,butv116_00038,72,3.552,0.20642223335536636,0.41753567702678984,0.6796475920381352,0.0051429597660899,0.9999999999999286,0.9285714285713622,0.6415245684517936,0.9495584644591077,0.7241872527981694,0.0032025620496397116,0.9912450700816194
1,good,butv116_00038,72,3.56,0.10764335037188116,0.41753567702678984,0.6796475920381352,0.0051429597660899,0.9999999999999286,0.9285714285713622,0.6415245684517936,0.9495584644591077,0.7241872527981694,0.0032025620496397116,0.9912450700816194
1,good,butv116_00038,72,3.568,-0.04407544855581754,0.41753567702678984,0.6796475920381352,0.0051429597660899,0.9999999999999286,0.9285714285713622,0.6415245684517936,0.9495584644591077,0.7241872527981694,0.0032025620496397116,0.9912450700816194
1,good,butv116_00038,72,3.576,-0.12426640276296011,0.41753567702678984,0.6796475920381352,0.0051429597660899,0.9999999999999286,0.9285714285713622,0.6415245684517936,0.9495584644591077,0.7241872527981694,0.0032025620496397116,0.9912450700816194
1,good,butv116_00038,72,3.584,-0.13074901379811973,0.41753567702678984,0.6796475920381352,0.0051429597660899,0.9999999999999286,0.9285714285713622,0.6415245684517936,0.9495584644591077,0.7241872527981694,0.0032025620496397116,0.9912450700816194
1,good,butv116_00038,72,3.592,-0.1843348786087017,0.41753567702678984,0.6796475920381352,0.0051429597660899,0.9999999999999286,0.9285714285713622,0.6415245684517936,0.9495584644591077,0.7241872527981694,0.0032025620496397116,0.9912450700816194
1,good,butv116_00038,72,3.6,-0.13941347477401408,0.41753567702678984,0.6796475920381352,0.0051429597660899,0.9999999999999286,0.9285714285713622,0.6415245684517936,0.9495584644591077,0.7241872527981694,0.0032025620496397116,0.9912450700816194
1,good,butv116_00038,72,3.608,-0.14312009876056436,0.41753567702678984,0.6796475920381352,0.0051429597660899,0.9999999999999286,0.9285714285713622,0.6415245684517936,0.9495584644591077,0.7241872527981694,0.0032025620496397116,0.9912450700816194
1,good,butv116_00038,72,3.616,-0.1808842953219172,0.41753567702678984,0.6796475920381352,0.0051429597660899,0.9999999999999286,0.9285714285713622,0.6415245684517936,0.9495584644591077,0.7241872527981694,0.0032025620496397116,0.9912450700816194
1,good,butv116_00038,72,3.624,-0.15726421164936547,0.41753567702678984,0.6796475920381352,0.0051429597660899,0.9999999999999286,0.9285714285713622,0.6415245684517936,0.9495584644591077,0.7241872527981694,0.0032025620496397116,0.9912450700816194
1,good,butv116_00038,72,3.632,-0.18914965380239387,0.41753567702678984,0.6796475920381352,0.0051429597660899,0.9999999999999286,0.9285714285713622,0.6415245684517936,0.9495584644591077,0.7241872527981694,0.0032025620496397116,0.9912450700816194
1,good,butv116_00038,72,3.64,-0.11730233941755824,0.41753567702678984,0.6796475920381352,0.0051429597660899,0.9999999999999286,0.9285714285713622,0.6415245684517936,0.9495584644591077,0.7241872527981694,0.0032025620496397116,0.9912450700816194
1,good,butv116_00038,72,3.648,-0.14469945056630706,0.41753567702678984,0.6796475920381352,0.0051429597660899,0.9999999999999286,0.9285714285713622,0.6415245684517936,0.9495584644591077,0.7241872527981694,0.0032025620496397116,0.9912450700816194
1,good,butv116_00038,72,3.656,-0.13242212955118393,0.41753567702678984,0.6796475920381352,0.0051429597660899,0.9999999999999286,0.9285714285713622,0.6415245684517936,0.9495584644591077,0.7241872527981694,0.0032025620496397116,0.9912450700816194
1,good,butv116_00038,72,3.664,-0.10651687352992671,0.41753567702678984,0.6796475920381352,0.0051429597660899,0.9999999999999286,0.9285714285713622,0.6415245684517936,0.9495584644591077,0.7241872527981694,0.0032025620496397116,0.9912450700816194
1,good,butv116_00038,72,3.672,-0.16071162979020603,0.41753567702678984,0.6796475920381352,0.0051429597660899,0.9999999999999286,0.9285714285713622,0.6415245684517936,0.9495584644591077,0.7241872527981694,0.0032025620496397116,0.9912450700816194
1,good,butv116_00038,72,3.68,-0.13875750527966826,0.41753567702678984,0.6796475920381352,0.0051429597660899,0.9999999999999286,0.9285714285713622,0.6415245684517936,0.9495584644591077,0.7241872527981694,0.0032025620496397116,0.9912450700816194
1,good,butv116_00038,72,3.688,-0.10528292877911913,0.41753567702678984,0.6796475920381352,0.0051429597660899,0.9999999999999286,0.9285714285713622,0.6415245684517936,0.9495584644591077,0.7241872527981694,0.0032025620496397116,0.9912450700816194
1,good,butv116_00038,72,3.696,-0.13870162504818018,0.41753567702678984,0.6796475920381352,0.0051429597660899,0.9999999999999286,0.9285714285713622,0.6415245684517936,0.9495584644591077,0.7241872527981694,0.0032025620496397116,0.9912450700816194
1,good,butv116_00038,72,3.704,-0.1309384043671457,0.41753567702678984,0.6796475920381352,0.0051429597660899,0.9999999999999286,0.9285714285713622,0.6415245684517936,0.9495584644591077,0.7241872527981694,0.0032025620496397116,0.9912450700816194
1,good,butv116_00038,72,3.712,-0.1338612065703139,0.41753567702678984,0.6796475920381352,0.0051429597660899,0.9999999999999286,0.9285714285713622,0.6415245684517936,0.9495584644591077,0.7241872527981694,0.0032025620496397116,0.9912450700816194
1,good,butv116_00038,72,3.72,-0.14621314660131884,0.41753567702678984,0.6796475920381352,0.0051429597660899,0.9999999999999286,0.9285714285713622,0.6415245684517936,0.9495584644591077,0.7241872527981694,0.0032025620496397116,0.9912450700816194
1,good,butv116_00038,72,3.728,-0.143963540129271,0.41753567702678984,0.6796475920381352,0.0051429597660899,0.9999999999999286,0.9285714285713622,0.6415245684517936,0.9495584644591077,0.7241872527981694,0.0032025620496397116,0.9912450700816194
1,good,butv116_00038,72,3.736,-0.17488992905621575,0.41753567702678984,0.6796475920381352,0.0051429597660899,0.9999999999999286,0.9285714285713622,0.6415245684517936,0.9495584644591077,0.7241872527981694,0.0032025620496397116,0.9912450700816194
1,good,butv116_00038,72,3.744,-0.14816601363858728,0.41753567702678984,0.6796475920381352,0.0051429597660899,0.9999999999999286,0.9285714285713622,0.6415245684517936,0.9495584644591077,0.7241872527981694,0.0032025620496397116,0.9912450700816194
1,good,butv116_00038,72,3.752,-0.15521681038589535,0.41753567702678984,0.6796475920381352,0.0051429597660899,0.9999999999999286,0.9285714285713622,0.6415245684517936,0.9495584644591077,0.7241872527981694,0.0032025620496397116,0.9912450700816194
1,good,butv116_00038,72,3.76,-0.1650713522316397,0.41753567702678984,0.6796475920381352,0.0051429597660899,0.9999999999999286,0.9285714285713622,0.6415245684517936,0.9495584644591077,0.7241872527981694,0.0032025620496397116,0.9912450700816194
1,good,butv116_00038,72,3.768,-0.2024586303293235,0.41753567702678984,0.6796475920381352,0.0051429597660899,0.9999999999999286,0.9285714285713622,0.6415245684517936,0.9495584644591077,0.7241872527981694,0.0032025620496397116,0.9912450700816194
1,good,butv116_00038,72,3.776,-0.1846110025796339,0.41753567702678984,0.6796475920381352,0.0051429597660899,0.9999999999999286,0.9285714285713622,0.6415245684517936,0.9495584644591077,0.7241872527981694,0.0032025620496397116,0.9912450700816194
1,good,butv116_00038,72,3.784,-0.18926753448119973,0.41753567702678984,0.6796475920381352,0.0051429597660899,0.9999999999999286,0.9285714285713622,0.6415245684517936,0.9495584644591077,0.7241872527981694,0.0032025620496397116,0.9912450700816194
1,good,butv116_00038,72,3.792,-0.2186562787024949,0.41753567702678984,0.6796475920381352,0.0051429597660899,0.9999999999999286,0.9285714285713622,0.6415245684517936,0.9495584644591077,0.7241872527981694,0.0032025620496397116,0.9912450700816194
1,good,butv116_00038,72,3.8,-0.19039823385192453,0.41753567702678984,0.6796475920381352,0.0051429597660899,0.9999999999999286,0.9285714285713622,0.6415245684517936,0.9495584644591077,0.7241872527981694,0.0032025620496397116,0.9912450700816194
1,good,butv116_00038,72,3.808,-0.0017416304182353898,0.41753567702678984,0.6796475920381352,0.0051429597660899,0.9999999999999286,0.9285714285713622,0.6415245684517936,0.9495584644591077,0.7241872527981694,0.0032025620496397116,0.9912450700816194
1,good,butv116_00038,72,3.816,0.10028289451221277,0.41753567702678984,0.6796475920381352,0.0051429597660899,0.9999999999999286,0.9285714285713622,0.6415245684517936,0.9495584644591077,0.7241872527981694,0.0032025620496397116,0.9912450700816194
1,good,butv116_00038,72,3.824,0.11556323177207001,0.41753567702678984,0.6796475920381352,0.0051429597660899,0.9999999999999286,0.9285714285713622,0.6415245684517936,0.9495584644591077,0.7241872527981694,0.0032025620496397116,0.9912450700816194
1,good,butv116_00038,72,3.832,0.15099877724319982,0.41753567702678984,0.6796475920381352,0.0051429597660899,0.9999999999999286,0.9285714285713622,0.6415245684517936,0.9495584644591077,0.7241872527981694,0.0032025620496397116,0.9912450700816194
1,good,butv116_00038,72,3.84,0.3327071449212552,0.41753567702678984,0.6796475920381352,0.0051429597660899,0.9999999999999286,0.9285714285713622,0.6415245684517936,0.9495584644591077,0.7241872527981694,0.0032025620496397116,0.9912450700816194
1,good,butv116_00038,72,3.848,0.36840018761948784,0.41753567702678984,0.6796475920381352,0.0051429597660899,0.9999999999999286,0.9285714285713622,0.6415245684517936,0.9495584644591077,0.7241872527981694,0.0032025620496397116,0.9912450700816194
1,good,butv116_00038,72,3.856,0.42545942196663655,0.41753567702678984,0.6796475920381352,0.0051429597660899,0.9999999999999286,0.9285714285713622,0.6415245684517936,0.9495584644591077,0.7241872527981694,0.0032025620496397116,0.9912450700816194
1,good,butv116_00038,72,3.864,0.4735825249793931,0.41753567702678984,0.6796475920381352,0.0051429597660899,0.9999999999999286,0.9285714285713622,0.6415245684517936,0.9495584644591077,0.7241872527981694,0.0032025620496397116,0.9912450700816194
1,good,butv116_00038,72,3.872,0.3378631396537885,0.41753567702678984,0.6796475920381352,0.0051429597660899,0.9999999999999286,0.9285714285713622,0.6415245684517936,0.9495584644591077,0.7241872527981694,0.0032025620496397116,0.9912450700816194
1,good,butv116_00038,72,3.88,-0.0030094207197300573,0.41753567702678984,0.6796475920381352,0.0051429597660899,0.9999999999999286,0.9285714285713622,0.6415245684517936,0.9495584644591077,0.7241872527981694,0.0032025620496397116,0.9912450700816194
1,good,butv116_00038,72,3.888,-0.22139970396207923,0.41753567702678984,0.6796475920381352,0.0051429597660899,0.9999999999999286,0.9285714285713622,0.6415245684517936,0.9495584644591077,0.7241872527981694,0.0032025620496397116,0.9912450700816194
1,good,butv116_00038,72,3.896,-0.2763548025049663,0.41753567702678984,0.6796475920381352,0.0051429597660899,0.9999999999999286,0.9285714285713622,0.6415245684517936,0.9495584644591077,0.7241872527981694,0.0032025620496397116,0.9912450700816194
1,good,butv116_00038,72,3.904,-0.31000078006142195,0.41753567702678984,0.6796475920381352,0.0051429597660899,0.9999999999999286,0.9285714285713622,0.6415245684517936,0.9495584644591077,0.7241872527981694,0.0032025620496397116,0.9912450700816194
1,good,butv116_00038,72,3.912,-0.358775987169053,0.41753567702678984,0.6796475920381352,0.0051429597660899,0.9999999999999286,0.9285714285713622,0.6415245684517936,0.9495584644591077,0.7241872527981694,0.0032025620496397116,0.9912450700816194
1,good,butv116_00038,72,3.92,-0.3539874014572863,0.41753567702678984,0.6796475920381352,0.0051429597660899,0.9999999999999286,0.9285714285713622,0.6415245684517936,0.9495584644591077,0.7241872527981694,0.0032025620496397116,0.9912450700816194
1,good,butv116_00038,72,3.928,-0.3569764756542895,0.41753567702678984,0.6796475920381352,0.0051429597660899,0.9999999999999286,0.9285714285713622,0.6415245684517936,0.9495584644591077,0.7241872527981694,0.0032025620496397116,0.9912450700816194
