rank,record_id,source_idx,time_s,z,l_detail,mlp_gm_margin,conformer_gm_margin
1,butv116_10291,32570,0.0,-0.060564464189309136,0.4821931042779894,-0.2549508551195938,0.9770236583426595
1,butv116_10291,32570,0.008,-0.06400132943969786,0.4821931042779894,-0.2549508551195938,0.9770236583426595
1,butv116_10291,32570,0.016,-0.07039928669600214,0.4821931042779894,-0.2549508551195938,0.9770236583426595
1,butv116_10291,32570,0.024,0.09083243912243497,0.4821931042779894,-0.2549508551195938,0.9770236583426595
1,butv116_10291,32570,0.032,0.11791015708491556,0.4821931042779894,-0.2549508551195938,0.9770236583426595
1,butv116_10291,32570,0.04,0.10570077491496294,0.4821931042779894,-0.2549508551195938,0.9770236583426595
1,butv116_10291,32570,0.048,0.12876599122906426,0.4821931042779894,-0.2549508551195938,0.9770236583426595
1,butv116_10291,32570,0.056,0.1461826265840118,0.4821931042779894,-0.2549508551195938,0.9770236583426595
1,butv116_10291,32570,0.064,0.1393193438656513,0.4821931042779894,-0.2549508551195938,0.9770236583426595
1,butv116_10291,32570,0.072,0.1722481771109084,0.4821931042779894,-0.2549508551195938,0.9770236583426595
1,butv116_10291,32570,0.08,0.1734446302635611,0.4821931042779894,-0.2549508551195938,0.9770236583426595
1,butv116_10291,32570,0.088,0.2252892295949638,0.4821931042779894,-0.2549508551195938,0.9770236583426595
1,butv116_10291,32570,0.096,0.23371022625343668,0.4821931042779894,-0.2549508551195938,0.9770236583426595
1,butv116_10291,32570,0.104,0.266040174684065,0.4821931042779894,-0.2549508551195938,0.9770236583426595
1,butv116_10291,32570,0.112,0.30504552781546235,0.4821931042779894,-0.2549508551195938,0.9770236583426595
1,butv116_10291,32570,0.12,0.2980939711392279,0.4821931042779894,-0.2549508551195938,0.9770236583426595
1,butv116_10291,32570,0.128,0.33273881763379126,0.4821931042779894,-0.2549508551195938,0.9770236583426595
1,butv116_10291,32570,0.136,0.3640437349717981,0.4821931042779894,-0.2549508551195938,0.9770236583426595
1,butv116_10291,32570,0.144,0.39709326391259026,0.4821931042779894,-0.2549508551195938,0.9770236583426595
1,butv116_10291,32570,0.152,0.4632517313022344,0.4821931042779894,-0.2549508551195938,0.9770236583426595
1,butv116_10291,32570,0.16,0.4816034992037789,0.4821931042779894,-0.2549508551195938,0.9770236583426595
1,butv116_10291,32570,0.168,0.561727794650534,0.4821931042779894,-0.2549508551195938,0.9770236583426595
1,butv116_10291,32570,0.176,0.6142390773417136,0.4821931042779894,-0.2549508551195938,0.9770236583426595
1,butv116_10291,32570,0.184,0.697066463389981,0.4821931042779894,-0.2549508551195938,0.9770236583426595
1,butv116_10291,32570,0.192,0.795008849530801,0.4821931042779894,-0.2549508551195938,0.9770236583426595
1,butv116_10291,32570,0.2,0.8652306639764179,0.4821931042779894,-0.2549508551195938,0.9770236583426595
1,butv116_10291,32570,0.208,0.9576897850074803,0.4821931042779894,-0.2549508551195938,0.9770236583426595
1,butv116_10291,32570,0.216,1.0344581855175778,0.4821931042779894,-0.2549508551195938,0.9770236583426595
1,butv116_10291,32570,0.224,1.114713400361161,0.4821931042779894,-0.2549508551195938,0.9770236583426595
1,butv116_10291,32570,0.232,1.20286299321115,0.4821931042779894,-0.2549508551195938,0.9770236583426595
1,butv116_10291,32570,0.24,1.2260431771470486,0.4821931042779894,-0.2549508551195938,0.9770236583426595
1,butv116_10291,32570,0.248,1.2304598161055007,0.4821931042779894,-0.2549508551195938,0.9770236583426595
1,butv116_10291,32570,0.256,1.1588446092091789,0.4821931042779894,-0.2549508551195938,0.9770236583426595
1,butv116_10291,32570,0.264,1.098750309233702,0.4821931042779894,-0.2549508551195938,0.9770236583426595
1,butv116_10291,32570,0.272,1.0329315208182408,0.4821931042779894,-0.2549508551195938,0.9770236583426595
1,butv116_10291,32570,0.28,0.9124841071688089,0.4821931042779894,-0.2549508551195938,0.9770236583426595
1,butv116_10291,32570,0.288,0.8304588755249817,0.4821931042779894,-0.2549508551195938,0.9770236583426595
1,butv116_10291,32570,0.296,0.7195321086410106,0.4821931042779894,-0.2549508551195938,0.9770236583426595
1,butv116_10291,32570,0.304,0.6279724492425828,0.4821931042779894,-0.2549508551195938,0.9770236583426595
1,butv116_10291,32570,0.312,0.5880263475314127,0.4821931042779894,-0.2549508551195938,0.9770236583426595
1,butv116_10291,32570,0.32,0.526265332153959,0.4821931042779894,-0.2549508551195938,0.9770236583426595
1,butv116_10291,32570,0.328,0.5263612948954078,0.4821931042779894,-0.2549508551195938,0.9770236583426595
1,butv116_10291,32570,0.336,0.5035575112279244,0.4821931042779894,-0.2549508551195938,0.9770236583426595
1,butv116_10291,32570,0.344,0.4909390549606309,0.4821931042779894,-0.2549508551195938,0.9770236583426595
1,butv116_10291,32570,0.352,0.5213716244820342,0.4821931042779894,-0.2549508551195938,0.9770236583426595
1,butv116_10291,32570,0.36,0.5079132001205876,0.4821931042779894,-0.2549508551195938,0.9770236583426595
1,butv116_10291,32570,0.368,0.5492791358551211,0.4821931042779894,-0.2549508551195938,0.9770236583426595
1,butv116_10291,32570,0.376,0.5475174100564733,0.4821931042779894,-0.2549508551195938,0.9770236583426595
1,butv116_10291,32570,0.384,0.5441708144864711,0.4821931042779894,-0.2549508551195938,0.9770236583426595
1,butv116_10291,32570,0.392,0.5858875492209771,0.4821931042779894,-0.2549508551195938,0.9770236583426595
1,butv116_10291,32570,0.4,0.5656159942977853,0.4821931042779894,-0.2549508551195938,0.9770236583426595
1,butv116_10291,32570,0.408,0.5926725015813511,0.4821931042779894,-0.2549508551195938,0.9770236583426595
1,butv116_10291,32570,0.416,0.607892035518354,0.4821931042779894,-0.2549508551195938,0.9770236583426595
1,butv116_10291,32570,0.424,0.6092080639609206,0.4821931042779894,-0.2549508551195938,0.9770236583426595
1,butv116_10291,32570,0.432,0.6481365012464282,0.4821931042779894,-0.2549508551195938,0.9770236583426595
1,butv116_10291,32570,0.44,0.6268947870959093,0.4821931042779894,-0.2549508551195938,0.9770236583426595
1,butv116_10291,32570,0.448,0.6488436452541976,0.4821931042779894,-0.2549508551195938,0.9770236583426595
1,butv116_10291,32570,0.456,0.6438484288329995,0.4821931042779894,-0.2549508551195938,0.9770236583426595
1,butv116_10291,32570,0.464,0.628384030247501,0.4821931042779894,-0.2549508551195938,0.9770236583426595
1,butv116_10291,32570,0.472,0.6628487715384694,0.4821931042779894,-0.2549508551195938,0.9770236583426595
1,butv116_10291,32570,0.48,0.6440975510228554,0.4821931042779894,-0.2549508551195938,0.9770236583426595
1,butv116_10291,32570,0.488,0.6488030305504321,0.4821931042779894,-0.2549508551195938,0.9770236583426595
1,butv116_10291,32570,0.496,0.6708260595608385,0.4821931042779894,-0.2549508551195938,0.9770236583426595
1,butv116_10291,32570,0.504,0.6633693680103224,0.4821931042779894,-0.2549508551195938,0.9770236583426595
1,butv116_10291,32570,0.512,0.6666598312587065,0.4821931042779894,-0.2549508551195938,0.9770236583426595
1,butv116_10291,32570,0.52,0.6540962188465668,0.4821931042779894,-0.2549508551195938,0.9770236583426595
1,butv116_10291,32570,0.528,0.6815779200633474,0.4821931042779894,-0.2549508551195938,0.9770236583426595
1,butv116_10291,32570,0.536,0.6612850214130732,0.4821931042779894,-0.2549508551195938,0.9770236583426595
1,butv116_10291,32570,0.544,0.658972392170521,0.4821931042779894,-0.2549508551195938,0.9770236583426595
1,butv116_10291,32570,0.552,0.6898512752710972,0.4821931042779894,-0.2549508551195938,0.9770236583426595
1,butv116_10291,32570,0.56,0.6712054289041495,0.4821931042779894,-0.2549508551195938,0.9770236583426595
1,butv116_10291,32570,0.568,0.6998013735111331,0.4821931042779894,-0.2549508551195938,0.9770236583426595
1,butv116_10291,32570,0.576,0.6926120667620972,0.4821931042779894,-0.2549508551195938,0.9770236583426595
1,butv116_10291,32570,0.584,0.6939322967257431,0.4821931042779894,-0.2549508551195938,0.9770236583426595
1,butv116_10291,32570,0.592,0.7380312378918727,0.4821931042779894,-0.2549508551195938,0.9770236583426595
1,butv116_10291,32570,0.6,0.7187495613349398,0.4821931042779894,-0.2549508551195938,0.9770236583426595
1,butv116_10291,32570,0.608,0.7436170201159629,0.4821931042779894,-0.2549508551195938,0.9770236583426595
1,butv116_10291,32570,0.616,0.7448062746624999,0.4821931042779894,-0.2549508551195938,0.9770236583426595
1,butv116_10291,32570,0.624,0.7231505146146964,0.4821931042779894,-0.2549508551195938,0.9770236583426595
1,butv116_10291,32570,0.632,0.7378721402936739,0.4821931042779894,-0.2549508551195938,0.9770236583426595
1,butv116_10291,32570,0.64,0.7304358961457432,0.4821931042779894,-0.2549508551195938,0.9770236583426595
1,butv116_10291,32570,0.648,0.7625010647179605,0.4821931042779894,-0.2549508551195938,0.9770236583426595
1,butv116_10291,32570,0.656,0.738108489859449,0.4821931042779894,-0.2549508551195938,0.9770236583426595
1,butv116_10291,32570,0.664,0.7399520612887197,0.4821931042779894,-0.2549508551195938,0.9770236583426595
1,butv116_10291,32570,0.672,0.7627013372227356,0.4821931042779894,-0.2549508551195938,0.9770236583426595
1,butv116_10291,32570,0.68,0.7953352797085141,0.4821931042779894,-0.2549508551195938,0.9770236583426595
1,butv116_10291,32570,0.688,0.962000993796985,0.4821931042779894,-0.2549508551195938,0.9770236583426595
1,butv116_10291,32570,0.696,0.9613269577753196,0.4821931042779894,-0.2549508551195938,0.9770236583426595
1,butv116_10291,32570,0.704,1.0225767320678567,0.4821931042779894,-0.2549508551195938,0.9770236583426595
1,butv116_10291,32570,0.712,1.0604194402862186,0.4821931042779894,-0.2549508551195938,0.9770236583426595
1,butv116_10291,32570,0.72,1.08405125972799,0.4821931042779894,-0.2549508551195938,0.9770236583426595
1,butv116_10291,32570,0.728,1.1654863737311738,0.4821931042779894,-0.2549508551195938,0.9770236583426595
1,butv116_10291,32570,0.736,1.0141576681090803,0.4821931042779894,-0.2549508551195938,0.9770236583426595
1,butv116_10291,32570,0.744,0.981154664011705,0.4821931042779894,-0.2549508551195938,0.9770236583426595
1,butv116_10291,32570,0.752,0.9944516379231484,0.4821931042779894,-0.2549508551195938,0.9770236583426595
1,butv116_10291,32570,0.76,0.9562707912883327,0.4821931042779894,-0.2549508551195938,0.9770236583426595
1,butv116_10291,32570,0.768,0.8884127526018721,0.4821931042779894,-0.2549508551195938,0.9770236583426595
1,butv116_10291,32570,0.776,0.8044960521884715,0.4821931042779894,-0.2549508551195938,0.9770236583426595
1,butv116_10291,32570,0.784,0.7509294034224787,0.4821931042779894,-0.2549508551195938,0.9770236583426595
1,butv116_10291,32570,0.792,0.757294147654652,0.4821931042779894,-0.2549508551195938,0.9770236583426595
1,butv116_10291,32570,0.8,0.7434267752414968,0.4821931042779894,-0.2549508551195938,0.9770236583426595
1,butv116_10291,32570,0.808,0.776722037145141,0.4821931042779894,-0.2549508551195938,0.9770236583426595
1,butv116_10291,32570,0.816,0.7759435793195872,0.4821931042779894,-0.2549508551195938,0.9770236583426595
1,butv116_10291,32570,0.824,0.7740147450225494,0.4821931042779894,-0.2549508551195938,0.9770236583426595
1,butv116_10291,32570,0.832,0.7857328433327115,0.4821931042779894,-0.2549508551195938,0.9770236583426595
1,butv116_10291,32570,0.84,0.7880954986862467,0.4821931042779894,-0.2549508551195938,0.9770236583426595
1,butv116_10291,32570,0.848,1.0981862970440308,0.4821931042779894,-0.2549508551195938,0.9770236583426595
1,butv116_10291,32570,0.856,1.7860396089912671,0.4821931042779894,-0.2549508551195938,0.9770236583426595
1,butv116_10291,32570,0.864,2.5,0.4821931042779894,-0.2549508551195938,0.9770236583426595
1,butv116_10291,32570,0.872,2.5,0.4821931042779894,-0.2549508551195938,0.9770236583426595
1,butv116_10291,32570,0.88,2.209923900075499,0.4821931042779894,-0.2549508551195938,0.9770236583426595
1,butv116_10291,32570,0.888,1.1190256175157247,0.4821931042779894,-0.2549508551195938,0.9770236583426595
1,butv116_10291,32570,0.896,1.1013844948895157,0.4821931042779894,-0.2549508551195938,0.9770236583426595
1,butv116_10291,32570,0.904,0.8113674438425148,0.4821931042779894,-0.2549508551195938,0.9770236583426595
1,butv116_10291,32570,0.912,1.2230268211338713,0.4821931042779894,-0.2549508551195938,0.9770236583426595
1,butv116_10291,32570,0.92,1.2516174438141545,0.4821931042779894,-0.2549508551195938,0.9770236583426595
1,butv116_10291,32570,0.928,1.136910204283403,0.4821931042779894,-0.2549508551195938,0.9770236583426595
1,butv116_10291,32570,0.936,0.9603483955058341,0.4821931042779894,-0.2549508551195938,0.9770236583426595
1,butv116_10291,32570,0.944,0.8780087780447209,0.4821931042779894,-0.2549508551195938,0.9770236583426595
1,butv116_10291,32570,0.952,0.8436783173674436,0.4821931042779894,-0.2549508551195938,0.9770236583426595
1,butv116_10291,32570,0.96,0.8332002839987364,0.4821931042779894,-0.2549508551195938,0.9770236583426595
1,butv116_10291,32570,0.968,1.0019965614163275,0.4821931042779894,-0.2549508551195938,0.9770236583426595
1,butv116_10291,32570,0.976,0.9875108371408767,0.4821931042779894,-0.2549508551195938,0.9770236583426595
1,butv116_10291,32570,0.984,0.9826955578624303,0.4821931042779894,-0.2549508551195938,0.9770236583426595
1,butv116_10291,32570,0.992,1.0009727347597488,0.4821931042779894,-0.2549508551195938,0.9770236583426595
1,butv116_10291,32570,1.0,0.9870403788205687,0.4821931042779894,-0.2549508551195938,0.9770236583426595
1,butv116_10291,32570,1.008,1.0118533298681243,0.4821931042779894,-0.2549508551195938,0.9770236583426595
1,butv116_10291,32570,1.016,1.011335702471167,0.4821931042779894,-0.2549508551195938,0.9770236583426595
1,butv116_10291,32570,1.024,1.0378062936351686,0.4821931042779894,-0.2549508551195938,0.9770236583426595
1,butv116_10291,32570,1.032,1.0433617128669264,0.4821931042779894,-0.2549508551195938,0.9770236583426595
1,butv116_10291,32570,1.04,1.0297597645454144,0.4821931042779894,-0.2549508551195938,0.9770236583426595
1,butv116_10291,32570,1.048,1.0637688928905547,0.4821931042779894,-0.2549508551195938,0.9770236583426595
1,butv116_10291,32570,1.056,1.0805440540122007,0.4821931042779894,-0.2549508551195938,0.9770236583426595
1,butv116_10291,32570,1.064,1.1228115801500487,0.4821931042779894,-0.2549508551195938,0.9770236583426595
1,butv116_10291,32570,1.072,1.1606322163776746,0.4821931042779894,-0.2549508551195938,0.9770236583426595
1,butv116_10291,32570,1.08,1.141136710407951,0.4821931042779894,-0.2549508551195938,0.9770236583426595
1,butv116_10291,32570,1.088,1.2155483376940244,0.4821931042779894,-0.2549508551195938,0.9770236583426595
1,butv116_10291,32570,1.096,1.2313393345180792,0.4821931042779894,-0.2549508551195938,0.9770236583426595
1,butv116_10291,32570,1.104,1.3019070741992167,0.4821931042779894,-0.2549508551195938,0.9770236583426595
1,butv116_10291,32570,1.112,1.342376797477417,0.4821931042779894,-0.2549508551195938,0.9770236583426595
1,butv116_10291,32570,1.12,1.3768190746356819,0.4821931042779894,-0.2549508551195938,0.9770236583426595
1,butv116_10291,32570,1.128,1.4788376084666959,0.4821931042779894,-0.2549508551195938,0.9770236583426595
1,butv116_10291,32570,1.136,1.5343988593396862,0.4821931042779894,-0.2549508551195938,0.9770236583426595
1,butv116_10291,32570,1.144,1.5965642291058018,0.4821931042779894,-0.2549508551195938,0.9770236583426595
1,butv116_10291,32570,1.152,1.677076913161118,0.4821931042779894,-0.2549508551195938,0.9770236583426595
1,butv116_10291,32570,1.16,1.7637102610840465,0.4821931042779894,-0.2549508551195938,0.9770236583426595
1,butv116_10291,32570,1.168,1.8219298983742664,0.4821931042779894,-0.2549508551195938,0.9770236583426595
1,butv116_10291,32570,1.176,1.8548245592480794,0.4821931042779894,-0.2549508551195938,0.9770236583426595
1,butv116_10291,32570,1.184,1.901289797086013,0.4821931042779894,-0.2549508551195938,0.9770236583426595
1,butv116_10291,32570,1.192,1.8837756164166768,0.4821931042779894,-0.2549508551195938,0.9770236583426595
1,butv116_10291,32570,1.2,1.779427871339918,0.4821931042779894,-0.2549508551195938,0.9770236583426595
1,butv116_10291,32570,1.208,1.724763729247758,0.4821931042779894,-0.2549508551195938,0.9770236583426595
1,butv116_10291,32570,1.216,1.6493688339885904,0.4821931042779894,-0.2549508551195938,0.9770236583426595
1,butv116_10291,32570,1.224,1.5268967353412337,0.4821931042779894,-0.2549508551195938,0.9770236583426595
1,butv116_10291,32570,1.232,1.4340212715813634,0.4821931042779894,-0.2549508551195938,0.9770236583426595
1,butv116_10291,32570,1.24,1.3447088097372146,0.4821931042779894,-0.2549508551195938,0.9770236583426595
1,butv116_10291,32570,1.248,1.2748905093760439,0.4821931042779894,-0.2549508551195938,0.9770236583426595
1,butv116_10291,32570,1.256,1.1651983174459841,0.4821931042779894,-0.2549508551195938,0.9770236583426595
1,butv116_10291,32570,1.264,1.1339169286260207,0.4821931042779894,-0.2549508551195938,0.9770236583426595
1,butv116_10291,32570,1.272,1.151739332881727,0.4821931042779894,-0.2549508551195938,0.9770236583426595
1,butv116_10291,32570,1.28,1.0675237082486115,0.4821931042779894,-0.2549508551195938,0.9770236583426595
1,butv116_10291,32570,1.288,1.074816540477039,0.4821931042779894,-0.2549508551195938,0.9770236583426595
1,butv116_10291,32570,1.296,1.1029075742908652,0.4821931042779894,-0.2549508551195938,0.9770236583426595
1,butv116_10291,32570,1.304,1.0666583069468591,0.4821931042779894,-0.2549508551195938,0.9770236583426595
1,butv116_10291,32570,1.312,1.0693024642127005,0.4821931042779894,-0.2549508551195938,0.9770236583426595
1,butv116_10291,32570,1.32,1.055684942253055,0.4821931042779894,-0.2549508551195938,0.9770236583426595
1,butv116_10291,32570,1.328,1.087021230948453,0.4821931042779894,-0.2549508551195938,0.9770236583426595
1,butv116_10291,32570,1.336,1.0686518446685165,0.4821931042779894,-0.2549508551195938,0.9770236583426595
1,butv116_10291,32570,1.344,1.0641322404334836,0.4821931042779894,-0.2549508551195938,0.9770236583426595
1,butv116_10291,32570,1.352,1.0934764479345318,0.4821931042779894,-0.2549508551195938,0.9770236583426595
1,butv116_10291,32570,1.36,1.070011793011431,0.4821931042779894,-0.2549508551195938,0.9770236583426595
1,butv116_10291,32570,1.368,1.05232652640375,0.4821931042779894,-0.2549508551195938,0.9770236583426595
1,butv116_10291,32570,1.376,1.06887962313129,0.4821931042779894,-0.2549508551195938,0.9770236583426595
1,butv116_10291,32570,1.384,1.0917938227727348,0.4821931042779894,-0.2549508551195938,0.9770236583426595
1,butv116_10291,32570,1.392,1.0677549599688105,0.4821931042779894,-0.2549508551195938,0.9770236583426595
1,butv116_10291,32570,1.4,1.0292227541312118,0.4821931042779894,-0.2549508551195938,0.9770236583426595
1,butv116_10291,32570,1.408,1.094205495872194,0.4821931042779894,-0.2549508551195938,0.9770236583426595
1,butv116_10291,32570,1.416,1.045678711691401,0.4821931042779894,-0.2549508551195938,0.9770236583426595
1,butv116_10291,32570,1.424,1.0367951275621086,0.4821931042779894,-0.2549508551195938,0.9770236583426595
1,butv116_10291,32570,1.432,1.0413882304058868,0.4821931042779894,-0.2549508551195938,0.9770236583426595
1,butv116_10291,32570,1.44,1.0104304147293028,0.4821931042779894,-0.2549508551195938,0.9770236583426595
1,butv116_10291,32570,1.448,1.0180868185817833,0.4821931042779894,-0.2549508551195938,0.9770236583426595
1,butv116_10291,32570,1.456,1.0296435784825042,0.4821931042779894,-0.2549508551195938,0.9770236583426595
1,butv116_10291,32570,1.464,1.0069087557810008,0.4821931042779894,-0.2549508551195938,0.9770236583426595
1,butv116_10291,32570,1.472,1.0174302608878074,0.4821931042779894,-0.2549508551195938,0.9770236583426595
1,butv116_10291,32570,1.48,0.9810477773154502,0.4821931042779894,-0.2549508551195938,0.9770236583426595
1,butv116_10291,32570,1.488,0.9935124018909641,0.4821931042779894,-0.2549508551195938,0.9770236583426595
1,butv116_10291,32570,1.496,0.9550615375014586,0.4821931042779894,-0.2549508551195938,0.9770236583426595
1,butv116_10291,32570,1.504,0.967042146848649,0.4821931042779894,-0.2549508551195938,0.9770236583426595
1,butv116_10291,32570,1.512,0.9847257328478984,0.4821931042779894,-0.2549508551195938,0.9770236583426595
1,butv116_10291,32570,1.52,0.9567558148817152,0.4821931042779894,-0.2549508551195938,0.9770236583426595
1,butv116_10291,32570,1.528,0.9733252695313237,0.4821931042779894,-0.2549508551195938,0.9770236583426595
1,butv116_10291,32570,1.536,0.9389399649988927,0.4821931042779894,-0.2549508551195938,0.9770236583426595
1,butv116_10291,32570,1.544,0.9390016433283352,0.4821931042779894,-0.2549508551195938,0.9770236583426595
1,butv116_10291,32570,1.552,0.9762966972790941,0.4821931042779894,-0.2549508551195938,0.9770236583426595
1,butv116_10291,32570,1.56,0.9111863973581474,0.4821931042779894,-0.2549508551195938,0.9770236583426595
1,butv116_10291,32570,1.568,0.9413644667427136,0.4821931042779894,-0.2549508551195938,0.9770236583426595
1,butv116_10291,32570,1.576,0.960228175982688,0.4821931042779894,-0.2549508551195938,0.9770236583426595
1,butv116_10291,32570,1.584,0.9168073603187407,0.4821931042779894,-0.2549508551195938,0.9770236583426595
1,butv116_10291,32570,1.592,0.924516647316538,0.4821931042779894,-0.2549508551195938,0.9770236583426595
1,butv116_10291,32570,1.6,0.9466906509843903,0.4821931042779894,-0.2549508551195938,0.9770236583426595
1,butv116_10291,32570,1.608,1.0547643049541813,0.4821931042779894,-0.2549508551195938,0.9770236583426595
1,butv116_10291,32570,1.616,1.0954521712068135,0.4821931042779894,-0.2549508551195938,0.9770236583426595
1,butv116_10291,32570,1.624,1.1127504497129599,0.4821931042779894,-0.2549508551195938,0.9770236583426595
1,butv116_10291,32570,1.632,1.1559643824789676,0.4821931042779894,-0.2549508551195938,0.9770236583426595
1,butv116_10291,32570,1.64,1.1446653158711042,0.4821931042779894,-0.2549508551195938,0.9770236583426595
1,butv116_10291,32570,1.648,1.2662679797564722,0.4821931042779894,-0.2549508551195938,0.9770236583426595
1,butv116_10291,32570,1.656,1.1344942736425834,0.4821931042779894,-0.2549508551195938,0.9770236583426595
1,butv116_10291,32570,1.664,1.0515519899978703,0.4821931042779894,-0.2549508551195938,0.9770236583426595
1,butv116_10291,32570,1.672,1.0411617964298587,0.4821931042779894,-0.2549508551195938,0.9770236583426595
1,butv116_10291,32570,1.68,0.9947830539058755,0.4821931042779894,-0.2549508551195938,0.9770236583426595
1,butv116_10291,32570,1.688,0.9444709033678289,0.4821931042779894,-0.2549508551195938,0.9770236583426595
1,butv116_10291,32570,1.696,0.8458817070619368,0.4821931042779894,-0.2549508551195938,0.9770236583426595
1,butv116_10291,32570,1.704,0.7810683146305868,0.4821931042779894,-0.2549508551195938,0.9770236583426595
1,butv116_10291,32570,1.712,0.7592243264384352,0.4821931042779894,-0.2549508551195938,0.9770236583426595
1,butv116_10291,32570,1.72,0.7448138934207235,0.4821931042779894,-0.2549508551195938,0.9770236583426595
1,butv116_10291,32570,1.728,0.7414076922716778,0.4821931042779894,-0.2549508551195938,0.9770236583426595
1,butv116_10291,32570,1.736,0.7457569388320195,0.4821931042779894,-0.2549508551195938,0.9770236583426595
1,butv116_10291,32570,1.744,0.7360407252653923,0.4821931042779894,-0.2549508551195938,0.9770236583426595
1,butv116_10291,32570,1.752,0.7555863693866609,0.4821931042779894,-0.2549508551195938,0.9770236583426595
1,butv116_10291,32570,1.76,0.7383391253565563,0.4821931042779894,-0.2549508551195938,0.9770236583426595
1,butv116_10291,32570,1.768,0.9112656100355606,0.4821931042779894,-0.2549508551195938,0.9770236583426595
1,butv116_10291,32570,1.776,1.5171409154359,0.4821931042779894,-0.2549508551195938,0.9770236583426595
1,butv116_10291,32570,1.784,2.3936547362603613,0.4821931042779894,-0.2549508551195938,0.9770236583426595
1,butv116_10291,32570,1.792,2.5,0.4821931042779894,-0.2549508551195938,0.9770236583426595
1,butv116_10291,32570,1.8,2.356494243024699,0.4821931042779894,-0.2549508551195938,0.9770236583426595
1,butv116_10291,32570,1.808,1.0166002644036822,0.4821931042779894,-0.2549508551195938,0.9770236583426595
1,butv116_10291,32570,1.816,1.0116504244101396,0.4821931042779894,-0.2549508551195938,0.9770236583426595
1,butv116_10291,32570,1.824,0.7199091811527983,0.4821931042779894,-0.2549508551195938,0.9770236583426595
1,butv116_10291,32570,1.832,1.0037353188997427,0.4821931042779894,-0.2549508551195938,0.9770236583426595
1,butv116_10291,32570,1.84,1.1701528631431355,0.4821931042779894,-0.2549508551195938,0.9770236583426595
1,butv116_10291,32570,1.848,1.0248333410293529,0.4821931042779894,-0.2549508551195938,0.9770236583426595
1,butv116_10291,32570,1.856,0.873572363927056,0.4821931042779894,-0.2549508551195938,0.9770236583426595
1,butv116_10291,32570,1.864,0.6987835970449083,0.4821931042779894,-0.2549508551195938,0.9770236583426595
1,butv116_10291,32570,1.872,0.6860390391249579,0.4821931042779894,-0.2549508551195938,0.9770236583426595
1,butv116_10291,32570,1.88,0.6207277944558636,0.4821931042779894,-0.2549508551195938,0.9770236583426595
1,butv116_10291,32570,1.888,0.7792407650016981,0.4821931042779894,-0.2549508551195938,0.9770236583426595
1,butv116_10291,32570,1.896,0.7574266356193493,0.4821931042779894,-0.2549508551195938,0.9770236583426595
1,butv116_10291,32570,1.904,0.7518042161314487,0.4821931042779894,-0.2549508551195938,0.9770236583426595
1,butv116_10291,32570,1.912,0.771168354542096,0.4821931042779894,-0.2549508551195938,0.9770236583426595
1,butv116_10291,32570,1.92,0.7245668193603532,0.4821931042779894,-0.2549508551195938,0.9770236583426595
1,butv116_10291,32570,1.928,0.7332567413780352,0.4821931042779894,-0.2549508551195938,0.9770236583426595
1,butv116_10291,32570,1.936,0.7680134603738673,0.4821931042779894,-0.2549508551195938,0.9770236583426595
1,butv116_10291,32570,1.944,0.7376577506780727,0.4821931042779894,-0.2549508551195938,0.9770236583426595
1,butv116_10291,32570,1.952,0.7852713482573724,0.4821931042779894,-0.2549508551195938,0.9770236583426595
1,butv116_10291,32570,1.96,0.73955101209664,0.4821931042779894,-0.2549508551195938,0.9770236583426595
1,butv116_10291,32570,1.968,0.782208775512324,0.4821931042779894,-0.2549508551195938,0.9770236583426595
1,butv116_10291,32570,1.976,0.80588697974681,0.4821931042779894,-0.2549508551195938,0.9770236583426595
1,butv116_10291,32570,1.984,0.766637658291414,0.4821931042779894,-0.2549508551195938,0.9770236583426595
1,butv116_10291,32570,1.992,0.8000846791364387,0.4821931042779894,-0.2549508551195938,0.9770236583426595
1,butv116_10291,32570,2.0,0.8424233510312279,0.4821931042779894,-0.2549508551195938,0.9770236583426595
1,butv116_10291,32570,2.008,0.8721648543655249,0.4821931042779894,-0.2549508551195938,0.9770236583426595
1,butv116_10291,32570,2.016,0.8711884208667195,0.4821931042779894,-0.2549508551195938,0.9770236583426595
1,butv116_10291,32570,2.024,0.9346745807992916,0.4821931042779894,-0.2549508551195938,0.9770236583426595
1,butv116_10291,32570,2.032,0.9403917305824578,0.4821931042779894,-0.2549508551195938,0.9770236583426595
1,butv116_10291,32570,2.04,0.998493389160774,0.4821931042779894,-0.2549508551195938,0.9770236583426595
1,butv116_10291,32570,2.048,1.057362525589557,0.4821931042779894,-0.2549508551195938,0.9770236583426595
1,butv116_10291,32570,2.056,1.1173096042664183,0.4821931042779894,-0.2549508551195938,0.9770236583426595
1,butv116_10291,32570,2.064,1.172610921035309,0.4821931042779894,-0.2549508551195938,0.9770236583426595
1,butv116_10291,32570,2.072,1.2431395585602694,0.4821931042779894,-0.2549508551195938,0.9770236583426595
1,butv116_10291,32570,2.08,1.3070747210455052,0.4821931042779894,-0.2549508551195938,0.9770236583426595
1,butv116_10291,32570,2.088,1.3779716358981273,0.4821931042779894,-0.2549508551195938,0.9770236583426595
1,butv116_10291,32570,2.096,1.4191978570517072,0.4821931042779894,-0.2549508551195938,0.9770236583426595
1,butv116_10291,32570,2.104,1.4267919663516535,0.4821931042779894,-0.2549508551195938,0.9770236583426595
1,butv116_10291,32570,2.112,1.42322089751546,0.4821931042779894,-0.2549508551195938,0.9770236583426595
1,butv116_10291,32570,2.12,1.3330454992619252,0.4821931042779894,-0.2549508551195938,0.9770236583426595
1,butv116_10291,32570,2.128,1.2736628809369834,0.4821931042779894,-0.2549508551195938,0.9770236583426595
1,butv116_10291,32570,2.136,1.1815987028873656,0.4821931042779894,-0.2549508551195938,0.9770236583426595
1,butv116_10291,32570,2.144,1.0659428159172122,0.4821931042779894,-0.2549508551195938,0.9770236583426595
1,butv116_10291,32570,2.152,0.9838418448533974,0.4821931042779894,-0.2549508551195938,0.9770236583426595
1,butv116_10291,32570,2.16,0.8518038350534868,0.4821931042779894,-0.2549508551195938,0.9770236583426595
1,butv116_10291,32570,2.168,0.7816400015987629,0.4821931042779894,-0.2549508551195938,0.9770236583426595
1,butv116_10291,32570,2.176,0.6955753155488333,0.4821931042779894,-0.2549508551195938,0.9770236583426595
1,butv116_10291,32570,2.184,0.6503640356820565,0.4821931042779894,-0.2549508551195938,0.9770236583426595
1,butv116_10291,32570,2.192,0.6228408794572945,0.4821931042779894,-0.2549508551195938,0.9770236583426595
1,butv116_10291,32570,2.2,0.56801416650951,0.4821931042779894,-0.2549508551195938,0.9770236583426595
1,butv116_10291,32570,2.208,0.5689749703499009,0.4821931042779894,-0.2549508551195938,0.9770236583426595
1,butv116_10291,32570,2.216,0.5510196859875299,0.4821931042779894,-0.2549508551195938,0.9770236583426595
1,butv116_10291,32570,2.224,0.5264076236678411,0.4821931042779894,-0.2549508551195938,0.9770236583426595
1,butv116_10291,32570,2.232,0.5344226693596419,0.4821931042779894,-0.2549508551195938,0.9770236583426595
1,butv116_10291,32570,2.24,0.5004197032454178,0.4821931042779894,-0.2549508551195938,0.9770236583426595
1,butv116_10291,32570,2.248,0.5170992377473013,0.4821931042779894,-0.2549508551195938,0.9770236583426595
1,butv116_10291,32570,2.256,0.4991167835486182,0.4821931042779894,-0.2549508551195938,0.9770236583426595
1,butv116_10291,32570,2.264,0.4816772779139296,0.4821931042779894,-0.2549508551195938,0.9770236583426595
1,butv116_10291,32570,2.272,0.51169748214648,0.4821931042779894,-0.2549508551195938,0.9770236583426595
1,butv116_10291,32570,2.28,0.48446002935510346,0.4821931042779894,-0.2549508551195938,0.9770236583426595
1,butv116_10291,32570,2.288,0.49047828814894556,0.4821931042779894,-0.2549508551195938,0.9770236583426595
1,butv116_10291,32570,2.296,0.47348817720888786,0.4821931042779894,-0.2549508551195938,0.9770236583426595
1,butv116_10291,32570,2.304,0.47576949111432987,0.4821931042779894,-0.2549508551195938,0.9770236583426595
1,butv116_10291,32570,2.312,0.4650718582438832,0.4821931042779894,-0.2549508551195938,0.9770236583426595
1,butv116_10291,32570,2.32,0.43227568102416664,0.4821931042779894,-0.2549508551195938,0.9770236583426595
1,butv116_10291,32570,2.328,0.44707904029320483,0.4821931042779894,-0.2549508551195938,0.9770236583426595
1,butv116_10291,32570,2.336,0.42493971317932616,0.4821931042779894,-0.2549508551195938,0.9770236583426595
1,butv116_10291,32570,2.344,0.41771477753153863,0.4821931042779894,-0.2549508551195938,0.9770236583426595
1,butv116_10291,32570,2.352,0.4179155542188432,0.4821931042779894,-0.2549508551195938,0.9770236583426595
1,butv116_10291,32570,2.36,0.3740081463936438,0.4821931042779894,-0.2549508551195938,0.9770236583426595
1,butv116_10291,32570,2.368,0.3846010213385158,0.4821931042779894,-0.2549508551195938,0.9770236583426595
1,butv116_10291,32570,2.376,0.3643909206636424,0.4821931042779894,-0.2549508551195938,0.9770236583426595
1,butv116_10291,32570,2.384,0.3378420971771463,0.4821931042779894,-0.2549508551195938,0.9770236583426595
1,butv116_10291,32570,2.392,0.3613261351174923,0.4821931042779894,-0.2549508551195938,0.9770236583426595
1,butv116_10291,32570,2.4,0.3306629300989815,0.4821931042779894,-0.2549508551195938,0.9770236583426595
1,butv116_10291,32570,2.408,0.3173738550471671,0.4821931042779894,-0.2549508551195938,0.9770236583426595
1,butv116_10291,32570,2.416,0.30410242638388524,0.4821931042779894,-0.2549508551195938,0.9770236583426595
1,butv116_10291,32570,2.424,0.2978177631434815,0.4821931042779894,-0.2549508551195938,0.9770236583426595
1,butv116_10291,32570,2.432,0.31156575633770645,0.4821931042779894,-0.2549508551195938,0.9770236583426595
1,butv116_10291,32570,2.44,0.27224299229384596,0.4821931042779894,-0.2549508551195938,0.9770236583426595
1,butv116_10291,32570,2.448,0.2798342165493179,0.4821931042779894,-0.2549508551195938,0.9770236583426595
1,butv116_10291,32570,2.456,0.2720919616161191,0.4821931042779894,-0.2549508551195938,0.9770236583426595
1,butv116_10291,32570,2.464,0.26438665205827666,0.4821931042779894,-0.2549508551195938,0.9770236583426595
1,butv116_10291,32570,2.472,0.2734997232689149,0.4821931042779894,-0.2549508551195938,0.9770236583426595
1,butv116_10291,32570,2.48,0.23109378502164768,0.4821931042779894,-0.2549508551195938,0.9770236583426595
1,butv116_10291,32570,2.488,0.25236419556113754,0.4821931042779894,-0.2549508551195938,0.9770236583426595
1,butv116_10291,32570,2.496,0.2391414205119528,0.4821931042779894,-0.2549508551195938,0.9770236583426595
1,butv116_10291,32570,2.504,0.21977012551040062,0.4821931042779894,-0.2549508551195938,0.9770236583426595
1,butv116_10291,32570,2.512,0.2452041313988128,0.4821931042779894,-0.2549508551195938,0.9770236583426595
1,butv116_10291,32570,2.52,0.29470099077651146,0.4821931042779894,-0.2549508551195938,0.9770236583426595
1,butv116_10291,32570,2.528,0.43647280451130094,0.4821931042779894,-0.2549508551195938,0.9770236583426595
1,butv116_10291,32570,2.536,0.41647471259008384,0.4821931042779894,-0.2549508551195938,0.9770236583426595
1,butv116_10291,32570,2.544,0.4606992512263411,0.4821931042779894,-0.2549508551195938,0.9770236583426595
1,butv116_10291,32570,2.552,0.42475731114420795,0.4821931042779894,-0.2549508551195938,0.9770236583426595
1,butv116_10291,32570,2.56,0.4749971394994113,0.4821931042779894,-0.2549508551195938,0.9770236583426595
1,butv116_10291,32570,2.568,0.45891043962180256,0.4821931042779894,-0.2549508551195938,0.9770236583426595
1,butv116_10291,32570,2.576,0.33693370030968334,0.4821931042779894,-0.2549508551195938,0.9770236583426595
1,butv116_10291,32570,2.584,0.3071299024228521,0.4821931042779894,-0.2549508551195938,0.9770236583426595
1,butv116_10291,32570,2.592,0.30595594141304333,0.4821931042779894,-0.2549508551195938,0.9770236583426595
1,butv116_10291,32570,2.6,0.25577952801599535,0.4821931042779894,-0.2549508551195938,0.9770236583426595
1,butv116_10291,32570,2.608,0.17282197884469436,0.4821931042779894,-0.2549508551195938,0.9770236583426595
1,butv116_10291,32570,2.616,0.10181106272012322,0.4821931042779894,-0.2549508551195938,0.9770236583426595
1,butv116_10291,32570,2.624,0.031150844058765104,0.4821931042779894,-0.2549508551195938,0.9770236583426595
1,butv116_10291,32570,2.632,0.038202743562173465,0.4821931042779894,-0.2549508551195938,0.9770236583426595
1,butv116_10291,32570,2.64,0.018197908199624257,0.4821931042779894,-0.2549508551195938,0.9770236583426595
1,butv116_10291,32570,2.648,0.027085632577813528,0.4821931042779894,-0.2549508551195938,0.9770236583426595
1,butv116_10291,32570,2.656,0.02502412474889732,0.4821931042779894,-0.2549508551195938,0.9770236583426595
1,butv116_10291,32570,2.664,0.034385066446236574,0.4821931042779894,-0.2549508551195938,0.9770236583426595
1,butv116_10291,32570,2.672,0.02197572163368848,0.4821931042779894,-0.2549508551195938,0.9770236583426595
1,butv116_10291,32570,2.68,0.10715394100555461,0.4821931042779894,-0.2549508551195938,0.9770236583426595
1,butv116_10291,32570,2.688,0.7042577308488539,0.4821931042779894,-0.2549508551195938,0.9770236583426595
1,butv116_10291,32570,2.696,1.5296195450816779,0.4821931042779894,-0.2549508551195938,0.9770236583426595
1,butv116_10291,32570,2.704,2.2793809816644206,0.4821931042779894,-0.2549508551195938,0.9770236583426595
1,butv116_10291,32570,2.712,2.08475240816518,0.4821931042779894,-0.2549508551195938,0.9770236583426595
1,butv116_10291,32570,2.72,0.47739917711052887,0.4821931042779894,-0.2549508551195938,0.9770236583426595
1,butv116_10291,32570,2.728,0.10280688623870914,0.4821931042779894,-0.2549508551195938,0.9770236583426595
1,butv116_10291,32570,2.736,-0.033000434166981736,0.4821931042779894,-0.2549508551195938,0.9770236583426595
1,butv116_10291,32570,2.744,0.06621714863405027,0.4821931042779894,-0.2549508551195938,0.9770236583426595
1,butv116_10291,32570,2.752,0.4253623861998934,0.4821931042779894,-0.2549508551195938,0.9770236583426595
1,butv116_10291,32570,2.76,0.24023339584043618,0.4821931042779894,-0.2549508551195938,0.9770236583426595
1,butv116_10291,32570,2.768,0.10133211032470013,0.4821931042779894,-0.2549508551195938,0.9770236583426595
1,butv116_10291,32570,2.776,-0.09322704004124237,0.4821931042779894,-0.2549508551195938,0.9770236583426595
1,butv116_10291,32570,2.784,-0.07062247849826422,0.4821931042779894,-0.2549508551195938,0.9770236583426595
1,butv116_10291,32570,2.792,-0.10370881976624527,0.4821931042779894,-0.2549508551195938,0.9770236583426595
1,butv116_10291,32570,2.8,0.023318921663201084,0.4821931042779894,-0.2549508551195938,0.9770236583426595
1,butv116_10291,32570,2.808,0.08573922922459973,0.4821931042779894,-0.2549508551195938,0.9770236583426595
1,butv116_10291,32570,2.816,0.06186965971002662,0.4821931042779894,-0.2549508551195938,0.9770236583426595
1,butv116_10291,32570,2.824,0.04848522063351709,0.4821931042779894,-0.2549508551195938,0.9770236583426595
1,butv116_10291,32570,2.832,0.06677977432176557,0.4821931042779894,-0.2549508551195938,0.9770236583426595
1,butv116_10291,32570,2.84,0.03737316372888867,0.4821931042779894,-0.2549508551195938,0.9770236583426595
1,butv116_10291,32570,2.848,0.06559596774756124,0.4821931042779894,-0.2549508551195938,0.9770236583426595
1,butv116_10291,32570,2.856,0.05759398178378158,0.4821931042779894,-0.2549508551195938,0.9770236583426595
1,butv116_10291,32570,2.864,0.06294221000605382,0.4821931042779894,-0.2549508551195938,0.9770236583426595
1,butv116_10291,32570,2.872,0.08875288926175118,0.4821931042779894,-0.2549508551195938,0.9770236583426595
1,butv116_10291,32570,2.88,0.08398009436395064,0.4821931042779894,-0.2549508551195938,0.9770236583426595
1,butv116_10291,32570,2.888,0.1181376274361433,0.4821931042779894,-0.2549508551195938,0.9770236583426595
1,butv116_10291,32570,2.896,0.11496582214557087,0.4821931042779894,-0.2549508551195938,0.9770236583426595
1,butv116_10291,32570,2.904,0.1317392256308987,0.4821931042779894,-0.2549508551195938,0.9770236583426595
1,butv116_10291,32570,2.912,0.1622158130881418,0.4821931042779894,-0.2549508551195938,0.9770236583426595
1,butv116_10291,32570,2.92,0.17704529181322234,0.4821931042779894,-0.2549508551195938,0.9770236583426595
1,butv116_10291,32570,2.928,0.2279504870515976,0.4821931042779894,-0.2549508551195938,0.9770236583426595
1,butv116_10291,32570,2.936,0.2519246044156914,0.4821931042779894,-0.2549508551195938,0.9770236583426595
1,butv116_10291,32570,2.944,0.2980025460405446,0.4821931042779894,-0.2549508551195938,0.9770236583426595
1,butv116_10291,32570,2.952,0.3747654845732394,0.4821931042779894,-0.2549508551195938,0.9770236583426595
1,butv116_10291,32570,2.96,0.40775266294121626,0.4821931042779894,-0.2549508551195938,0.9770236583426595
1,butv116_10291,32570,2.968,0.49803469579974124,0.4821931042779894,-0.2549508551195938,0.9770236583426595
1,butv116_10291,32570,2.976,0.5573248246406596,0.4821931042779894,-0.2549508551195938,0.9770236583426595
1,butv116_10291,32570,2.984,0.6389687262313388,0.4821931042779894,-0.2549508551195938,0.9770236583426595
1,butv116_10291,32570,2.992,0.7313236495396371,0.4821931042779894,-0.2549508551195938,0.9770236583426595
1,butv116_10291,32570,3.0,0.7798035447451863,0.4821931042779894,-0.2549508551195938,0.9770236583426595
1,butv116_10291,32570,3.008,0.8510866073951273,0.4821931042779894,-0.2549508551195938,0.9770236583426595
1,butv116_10291,32570,3.016,0.8626837579184895,0.4821931042779894,-0.2549508551195938,0.9770236583426595
1,butv116_10291,32570,3.024,0.8304513127870391,0.4821931042779894,-0.2549508551195938,0.9770236583426595
1,butv116_10291,32570,3.032,0.7753615285994159,0.4821931042779894,-0.2549508551195938,0.9770236583426595
1,butv116_10291,32570,3.04,0.671611351860681,0.4821931042779894,-0.2549508551195938,0.9770236583426595
1,butv116_10291,32570,3.048,0.5907874191238179,0.4821931042779894,-0.2549508551195938,0.9770236583426595
1,butv116_10291,32570,3.056,0.4708953905407747,0.4821931042779894,-0.2549508551195938,0.9770236583426595
1,butv116_10291,32570,3.064,0.3585327678330583,0.4821931042779894,-0.2549508551195938,0.9770236583426595
1,butv116_10291,32570,3.072,0.273474318071456,0.4821931042779894,-0.2549508551195938,0.9770236583426595
1,butv116_10291,32570,3.08,0.16676495401636152,0.4821931042779894,-0.2549508551195938,0.9770236583426595
1,butv116_10291,32570,3.088,0.10815332881452273,0.4821931042779894,-0.2549508551195938,0.9770236583426595
1,butv116_10291,32570,3.096,0.03499283397668028,0.4821931042779894,-0.2549508551195938,0.9770236583426595
1,butv116_10291,32570,3.104,-0.007187465519954669,0.4821931042779894,-0.2549508551195938,0.9770236583426595
1,butv116_10291,32570,3.112,-0.02024277100253171,0.4821931042779894,-0.2549508551195938,0.9770236583426595
1,butv116_10291,32570,3.12,-0.0579288220061882,0.4821931042779894,-0.2549508551195938,0.9770236583426595
1,butv116_10291,32570,3.128,-0.057729659403231555,0.4821931042779894,-0.2549508551195938,0.9770236583426595
1,butv116_10291,32570,3.136,-0.07666495205859275,0.4821931042779894,-0.2549508551195938,0.9770236583426595
1,butv116_10291,32570,3.144,-0.08492722225322867,0.4821931042779894,-0.2549508551195938,0.9770236583426595
1,butv116_10291,32570,3.152,-0.07098992252424541,0.4821931042779894,-0.2549508551195938,0.9770236583426595
1,butv116_10291,32570,3.16,-0.09704076772736481,0.4821931042779894,-0.2549508551195938,0.9770236583426595
1,butv116_10291,32570,3.168,-0.0938677439956794,0.4821931042779894,-0.2549508551195938,0.9770236583426595
1,butv116_10291,32570,3.176,-0.10541534458044767,0.4821931042779894,-0.2549508551195938,0.9770236583426595
1,butv116_10291,32570,3.184,-0.11438107544937359,0.4821931042779894,-0.2549508551195938,0.9770236583426595
1,butv116_10291,32570,3.192,-0.09704609665660026,0.4821931042779894,-0.2549508551195938,0.9770236583426595
1,butv116_10291,32570,3.2,-0.12389259090902235,0.4821931042779894,-0.2549508551195938,0.9770236583426595
1,butv116_10291,32570,3.208,-0.11482226317282983,0.4821931042779894,-0.2549508551195938,0.9770236583426595
1,butv116_10291,32570,3.216,-0.13161525274892186,0.4821931042779894,-0.2549508551195938,0.9770236583426595
1,butv116_10291,32570,3.224,-0.12924020290820298,0.4821931042779894,-0.2549508551195938,0.9770236583426595
1,butv116_10291,32570,3.232,-0.11940517032545604,0.4821931042779894,-0.2549508551195938,0.9770236583426595
1,butv116_10291,32570,3.24,-0.14135306213389617,0.4821931042779894,-0.2549508551195938,0.9770236583426595
1,butv116_10291,32570,3.248,-0.11852280888361383,0.4821931042779894,-0.2549508551195938,0.9770236583426595
1,butv116_10291,32570,3.256,-0.13463579627810804,0.4821931042779894,-0.2549508551195938,0.9770236583426595
1,butv116_10291,32570,3.264,-0.15724199641430708,0.4821931042779894,-0.2549508551195938,0.9770236583426595
1,butv116_10291,32570,3.272,-0.15103933286029902,0.4821931042779894,-0.2549508551195938,0.9770236583426595
1,butv116_10291,32570,3.28,-0.18190783820380965,0.4821931042779894,-0.2549508551195938,0.9770236583426595
1,butv116_10291,32570,3.288,-0.17735289917650063,0.4821931042779894,-0.2549508551195938,0.9770236583426595
1,butv116_10291,32570,3.296,-0.18771541872567052,0.4821931042779894,-0.2549508551195938,0.9770236583426595
1,butv116_10291,32570,3.304,-0.19480218035023353,0.4821931042779894,-0.2549508551195938,0.9770236583426595
1,butv116_10291,32570,3.312,-0.19541696091961192,0.4821931042779894,-0.2549508551195938,0.9770236583426595
1,butv116_10291,32570,3.32,-0.22508044200746824,0.4821931042779894,-0.2549508551195938,0.9770236583426595
1,butv116_10291,32570,3.328,-0.2092872043721712,0.4821931042779894,-0.2549508551195938,0.9770236583426595
1,butv116_10291,32570,3.336,-0.23333056280365017,0.4821931042779894,-0.2549508551195938,0.9770236583426595
1,butv116_10291,32570,3.344,-0.2398455394245452,0.4821931042779894,-0.2549508551195938,0.9770236583426595
1,butv116_10291,32570,3.352,-0.22650397336938133,0.4821931042779894,-0.2549508551195938,0.9770236583426595
1,butv116_10291,32570,3.36,-0.2528902820205341,0.4821931042779894,-0.2549508551195938,0.9770236583426595
1,butv116_10291,32570,3.368,-0.24156502593127693,0.4821931042779894,-0.2549508551195938,0.9770236583426595
1,butv116_10291,32570,3.376,-0.2612275563689688,0.4821931042779894,-0.2549508551195938,0.9770236583426595
1,butv116_10291,32570,3.384,-0.2724608271567321,0.4821931042779894,-0.2549508551195938,0.9770236583426595
1,butv116_10291,32570,3.392,-0.25659011347273464,0.4821931042779894,-0.2549508551195938,0.9770236583426595
1,butv116_10291,32570,3.4,-0.3099520361216084,0.4821931042779894,-0.2549508551195938,0.9770236583426595
1,butv116_10291,32570,3.408,-0.28129508542855475,0.4821931042779894,-0.2549508551195938,0.9770236583426595
1,butv116_10291,32570,3.416,-0.2337427320215194,0.4821931042779894,-0.2549508551195938,0.9770236583426595
1,butv116_10291,32570,3.424,-0.09785872685359805,0.4821931042779894,-0.2549508551195938,0.9770236583426595
1,butv116_10291,32570,3.432,-0.11055687897322881,0.4821931042779894,-0.2549508551195938,0.9770236583426595
1,butv116_10291,32570,3.44,-0.0943296032028453,0.4821931042779894,-0.2549508551195938,0.9770236583426595
1,butv116_10291,32570,3.448,-0.09464666398855179,0.4821931042779894,-0.2549508551195938,0.9770236583426595
1,butv116_10291,32570,3.456,-0.07204427323146456,0.4821931042779894,-0.2549508551195938,0.9770236583426595
1,butv116_10291,32570,3.464,-0.07373025260758968,0.4821931042779894,-0.2549508551195938,0.9770236583426595
1,butv116_10291,32570,3.472,-0.18602513279043922,0.4821931042779894,-0.2549508551195938,0.9770236583426595
1,butv116_10291,32570,3.48,-0.22987124042309315,0.4821931042779894,-0.2549508551195938,0.9770236583426595
1,butv116_10291,32570,3.488,-0.21209215384971353,0.4821931042779894,-0.2549508551195938,0.9770236583426595
1,butv116_10291,32570,3.496,-0.2438310182898501,0.4821931042779894,-0.2549508551195938,0.9770236583426595
1,butv116_10291,32570,3.504,-0.3596974014660712,0.4821931042779894,-0.2549508551195938,0.9770236583426595
1,butv116_10291,32570,3.512,-0.3975288496079409,0.4821931042779894,-0.2549508551195938,0.9770236583426595
1,butv116_10291,32570,3.52,-0.4721657624542808,0.4821931042779894,-0.2549508551195938,0.9770236583426595
1,butv116_10291,32570,3.528,-0.4796040793526105,0.4821931042779894,-0.2549508551195938,0.9770236583426595
1,butv116_10291,32570,3.536,-0.4809895729436866,0.4821931042779894,-0.2549508551195938,0.9770236583426595
1,butv116_10291,32570,3.544,-0.4844914007124948,0.4821931042779894,-0.2549508551195938,0.9770236583426595
1,butv116_10291,32570,3.552,-0.4742427703947117,0.4821931042779894,-0.2549508551195938,0.9770236583426595
1,butv116_10291,32570,3.56,-0.5020206508374351,0.4821931042779894,-0.2549508551195938,0.9770236583426595
1,butv116_10291,32570,3.568,-0.5055944086471192,0.4821931042779894,-0.2549508551195938,0.9770236583426595
1,butv116_10291,32570,3.576,-0.40194389198838293,0.4821931042779894,-0.2549508551195938,0.9770236583426595
1,butv116_10291,32570,3.584,0.11271800836820035,0.4821931042779894,-0.2549508551195938,0.9770236583426595
1,butv116_10291,32570,3.592,0.9322736075735141,0.4821931042779894,-0.2549508551195938,0.9770236583426595
1,butv116_10291,32570,3.6,1.6860409424140068,0.4821931042779894,-0.2549508551195938,0.9770236583426595
1,butv116_10291,32570,3.608,1.6454950315535706,0.4821931042779894,-0.2549508551195938,0.9770236583426595
1,butv116_10291,32570,3.616,0.1541991988284714,0.4821931042779894,-0.2549508551195938,0.9770236583426595
1,butv116_10291,32570,3.624,-0.35102316512708487,0.4821931042779894,-0.2549508551195938,0.9770236583426595
1,butv116_10291,32570,3.632,-0.4754906781755143,0.4821931042779894,-0.2549508551195938,0.9770236583426595
1,butv116_10291,32570,3.64,-0.47817281719191174,0.4821931042779894,-0.2549508551195938,0.9770236583426595
1,butv116_10291,32570,3.648,-0.09628290435763434,0.4821931042779894,-0.2549508551195938,0.9770236583426595
1,butv116_10291,32570,3.656,-0.25945266580427273,0.4821931042779894,-0.2549508551195938,0.9770236583426595
1,butv116_10291,32570,3.664,-0.38912227817184,0.4821931042779894,-0.2549508551195938,0.9770236583426595
1,butv116_10291,32570,3.672,-0.5908192386434576,0.4821931042779894,-0.2549508551195938,0.9770236583426595
1,butv116_10291,32570,3.68,-0.5707593283420953,0.4821931042779894,-0.2549508551195938,0.9770236583426595
1,butv116_10291,32570,3.688,-0.5894722870057482,0.4821931042779894,-0.2549508551195938,0.9770236583426595
1,butv116_10291,32570,3.696,-0.4376251697027626,0.4821931042779894,-0.2549508551195938,0.9770236583426595
1,butv116_10291,32570,3.704,-0.4011799714257633,0.4821931042779894,-0.2549508551195938,0.9770236583426595
1,butv116_10291,32570,3.712,-0.39929088351813463,0.4821931042779894,-0.2549508551195938,0.9770236583426595
1,butv116_10291,32570,3.72,-0.42410352645414434,0.4821931042779894,-0.2549508551195938,0.9770236583426595
1,butv116_10291,32570,3.728,-0.4046432852513456,0.4821931042779894,-0.2549508551195938,0.9770236583426595
1,butv116_10291,32570,3.736,-0.40864327336944395,0.4821931042779894,-0.2549508551195938,0.9770236583426595
1,butv116_10291,32570,3.744,-0.4170159245253655,0.4821931042779894,-0.2549508551195938,0.9770236583426595
1,butv116_10291,32570,3.752,-0.38286722164997433,0.4821931042779894,-0.2549508551195938,0.9770236583426595
1,butv116_10291,32570,3.76,-0.40285024411558734,0.4821931042779894,-0.2549508551195938,0.9770236583426595
1,butv116_10291,32570,3.768,-0.3724145094483043,0.4821931042779894,-0.2549508551195938,0.9770236583426595
1,butv116_10291,32570,3.776,-0.36871647064509755,0.4821931042779894,-0.2549508551195938,0.9770236583426595
1,butv116_10291,32570,3.784,-0.35840436934887804,0.4821931042779894,-0.2549508551195938,0.9770236583426595
1,butv116_10291,32570,3.792,-0.3271197873728945,0.4821931042779894,-0.2549508551195938,0.9770236583426595
1,butv116_10291,32570,3.8,-0.3269773277981692,0.4821931042779894,-0.2549508551195938,0.9770236583426595
1,butv116_10291,32570,3.808,-0.2978917099144754,0.4821931042779894,-0.2549508551195938,0.9770236583426595
1,butv116_10291,32570,3.816,-0.27750576157736734,0.4821931042779894,-0.2549508551195938,0.9770236583426595
1,butv116_10291,32570,3.824,-0.2541352487365813,0.4821931042779894,-0.2549508551195938,0.9770236583426595
1,butv116_10291,32570,3.832,-0.2043655705901401,0.4821931042779894,-0.2549508551195938,0.9770236583426595
1,butv116_10291,32570,3.84,-0.1753502721642418,0.4821931042779894,-0.2549508551195938,0.9770236583426595
1,butv116_10291,32570,3.848,-0.11071802131168629,0.4821931042779894,-0.2549508551195938,0.9770236583426595
1,butv116_10291,32570,3.856,-0.04172438150287012,0.4821931042779894,-0.2549508551195938,0.9770236583426595
1,butv116_10291,32570,3.864,0.014138393281002559,0.4821931042779894,-0.2549508551195938,0.9770236583426595
1,butv116_10291,32570,3.872,0.11263231834579013,0.4821931042779894,-0.2549508551195938,0.9770236583426595
1,butv116_10291,32570,3.88,0.153934026828093,0.4821931042779894,-0.2549508551195938,0.9770236583426595
1,butv116_10291,32570,3.888,0.2541735105885425,0.4821931042779894,-0.2549508551195938,0.9770236583426595
1,butv116_10291,32570,3.896,0.34182561533261424,0.4821931042779894,-0.2549508551195938,0.9770236583426595
1,butv116_10291,32570,3.904,0.38493260538208607,0.4821931042779894,-0.2549508551195938,0.9770236583426595
1,butv116_10291,32570,3.912,0.41324578762043973,0.4821931042779894,-0.2549508551195938,0.9770236583426595
1,butv116_10291,32570,3.92,0.36985852810484493,0.4821931042779894,-0.2549508551195938,0.9770236583426595
1,butv116_10291,32570,3.928,0.3201811433714435,0.4821931042779894,-0.2549508551195938,0.9770236583426595
1,butv116_10291,32570,3.936,0.24106708966311102,0.4821931042779894,-0.2549508551195938,0.9770236583426595
1,butv116_10291,32570,3.944,0.12788449810157843,0.4821931042779894,-0.2549508551195938,0.9770236583426595
1,butv116_10291,32570,3.952,0.03679995721058893,0.4821931042779894,-0.2549508551195938,0.9770236583426595
1,butv116_10291,32570,3.96,-0.09436997281788125,0.4821931042779894,-0.2549508551195938,0.9770236583426595
1,butv116_10291,32570,3.968,-0.18265477061619906,0.4821931042779894,-0.2549508551195938,0.9770236583426595
1,butv116_10291,32570,3.976,-0.2683923822551833,0.4821931042779894,-0.2549508551195938,0.9770236583426595
1,butv116_10291,32570,3.984,-0.3456846004032948,0.4821931042779894,-0.2549508551195938,0.9770236583426595
1,butv116_10291,32570,3.992,-0.3827596907204874,0.4821931042779894,-0.2549508551195938,0.9770236583426595
1,butv116_10291,32570,4.0,-0.4413712739071154,0.4821931042779894,-0.2549508551195938,0.9770236583426595
1,butv116_10291,32570,4.008,-0.4505128034205301,0.4821931042779894,-0.2549508551195938,0.9770236583426595
1,butv116_10291,32570,4.016,-0.48166691416193425,0.4821931042779894,-0.2549508551195938,0.9770236583426595
1,butv116_10291,32570,4.024,-0.5118499693515144,0.4821931042779894,-0.2549508551195938,0.9770236583426595
1,butv116_10291,32570,4.032,-0.48355659028251397,0.4821931042779894,-0.2549508551195938,0.9770236583426595
1,butv116_10291,32570,4.04,-0.5180701812585632,0.4821931042779894,-0.2549508551195938,0.9770236583426595
1,butv116_10291,32570,4.048,-0.4979881989664648,0.4821931042779894,-0.2549508551195938,0.9770236583426595
1,butv116_10291,32570,4.056,-0.5326922588981042,0.4821931042779894,-0.2549508551195938,0.9770236583426595
1,butv116_10291,32570,4.064,-0.5235299738705584,0.4821931042779894,-0.2549508551195938,0.9770236583426595
1,butv116_10291,32570,4.072,-0.5059921526426165,0.4821931042779894,-0.2549508551195938,0.9770236583426595
1,butv116_10291,32570,4.08,-0.5380415795158571,0.4821931042779894,-0.2549508551195938,0.9770236583426595
1,butv116_10291,32570,4.088,-0.512755593215065,0.4821931042779894,-0.2549508551195938,0.9770236583426595
1,butv116_10291,32570,4.096,-0.5172182808445451,0.4821931042779894,-0.2549508551195938,0.9770236583426595
1,butv116_10291,32570,4.104,-0.5195262043834887,0.4821931042779894,-0.2549508551195938,0.9770236583426595
1,butv116_10291,32570,4.112,-0.5301559966935766,0.4821931042779894,-0.2549508551195938,0.9770236583426595
1,butv116_10291,32570,4.12,-0.5458943904737199,0.4821931042779894,-0.2549508551195938,0.9770236583426595
1,butv116_10291,32570,4.128,-0.5245744720108468,0.4821931042779894,-0.2549508551195938,0.9770236583426595
1,butv116_10291,32570,4.136,-0.5515085189600243,0.4821931042779894,-0.2549508551195938,0.9770236583426595
1,butv116_10291,32570,4.144,-0.5513339597642539,0.4821931042779894,-0.2549508551195938,0.9770236583426595
1,butv116_10291,32570,4.152,-0.5381560289500544,0.4821931042779894,-0.2549508551195938,0.9770236583426595
1,butv116_10291,32570,4.16,-0.555636485410195,0.4821931042779894,-0.2549508551195938,0.9770236583426595
1,butv116_10291,32570,4.168,-0.5598789012945631,0.4821931042779894,-0.2549508551195938,0.9770236583426595
1,butv116_10291,32570,4.176,-0.5812215079712638,0.4821931042779894,-0.2549508551195938,0.9770236583426595
1,butv116_10291,32570,4.184,-0.587156800728862,0.4821931042779894,-0.2549508551195938,0.9770236583426595
1,butv116_10291,32570,4.192,-0.5642097171824374,0.4821931042779894,-0.2549508551195938,0.9770236583426595
1,butv116_10291,32570,4.2,-0.5952908334976257,0.4821931042779894,-0.2549508551195938,0.9770236583426595
1,butv116_10291,32570,4.208,-0.585385943624402,0.4821931042779894,-0.2549508551195938,0.9770236583426595
1,butv116_10291,32570,4.216,-0.5767903037397372,0.4821931042779894,-0.2549508551195938,0.9770236583426595
1,butv116_10291,32570,4.224,-0.6158614807013753,0.4821931042779894,-0.2549508551195938,0.9770236583426595
1,butv116_10291,32570,4.232,-0.6053726354184241,0.4821931042779894,-0.2549508551195938,0.9770236583426595
1,butv116_10291,32570,4.24,-0.6115566022036298,0.4821931042779894,-0.2549508551195938,0.9770236583426595
1,butv116_10291,32570,4.248,-0.6103551352358225,0.4821931042779894,-0.2549508551195938,0.9770236583426595
1,butv116_10291,32570,4.256,-0.6150228570939675,0.4821931042779894,-0.2549508551195938,0.9770236583426595
1,butv116_10291,32570,4.264,-0.6332578507196508,0.4821931042779894,-0.2549508551195938,0.9770236583426595
1,butv116_10291,32570,4.272,-0.6091107567327264,0.4821931042779894,-0.2549508551195938,0.9770236583426595
1,butv116_10291,32570,4.28,-0.6341278456844499,0.4821931042779894,-0.2549508551195938,0.9770236583426595
1,butv116_10291,32570,4.288,-0.6352334059310893,0.4821931042779894,-0.2549508551195938,0.9770236583426595
1,butv116_10291,32570,4.296,-0.6252001735939664,0.4821931042779894,-0.2549508551195938,0.9770236583426595
1,butv116_10291,32570,4.304,-0.5536942622659847,0.4821931042779894,-0.2549508551195938,0.9770236583426595
1,butv116_10291,32570,4.312,-0.4211172253217536,0.4821931042779894,-0.2549508551195938,0.9770236583426595
1,butv116_10291,32570,4.32,-0.46757187532656763,0.4821931042779894,-0.2549508551195938,0.9770236583426595
1,butv116_10291,32570,4.328,-0.39751546076076855,0.4821931042779894,-0.2549508551195938,0.9770236583426595
1,butv116_10291,32570,4.336,-0.425618230823476,0.4821931042779894,-0.2549508551195938,0.9770236583426595
1,butv116_10291,32570,4.344,-0.3736796994858127,0.4821931042779894,-0.2549508551195938,0.9770236583426595
1,butv116_10291,32570,4.352,-0.3419256675545802,0.4821931042779894,-0.2549508551195938,0.9770236583426595
1,butv116_10291,32570,4.36,-0.48273241990761867,0.4821931042779894,-0.2549508551195938,0.9770236583426595
1,butv116_10291,32570,4.368,-0.5075643058101711,0.4821931042779894,-0.2549508551195938,0.9770236583426595
1,butv116_10291,32570,4.376,-0.4968094762327663,0.4821931042779894,-0.2549508551195938,0.9770236583426595
1,butv116_10291,32570,4.384,-0.5335564837739546,0.4821931042779894,-0.2549508551195938,0.9770236583426595
1,butv116_10291,32570,4.392,-0.6131222570185818,0.4821931042779894,-0.2549508551195938,0.9770236583426595
1,butv116_10291,32570,4.4,-0.6890518658604287,0.4821931042779894,-0.2549508551195938,0.9770236583426595
1,butv116_10291,32570,4.408,-0.7607728390473841,0.4821931042779894,-0.2549508551195938,0.9770236583426595
1,butv116_10291,32570,4.416,-0.7791653617033968,0.4821931042779894,-0.2549508551195938,0.9770236583426595
1,butv116_10291,32570,4.424,-0.7691506160590222,0.4821931042779894,-0.2549508551195938,0.9770236583426595
1,butv116_10291,32570,4.432,-0.7696184974464017,0.4821931042779894,-0.2549508551195938,0.9770236583426595
1,butv116_10291,32570,4.44,-0.7876387093145164,0.4821931042779894,-0.2549508551195938,0.9770236583426595
1,butv116_10291,32570,4.448,-0.7474183323072963,0.4821931042779894,-0.2549508551195938,0.9770236583426595
1,butv116_10291,32570,4.456,-0.789457127637593,0.4821931042779894,-0.2549508551195938,0.9770236583426595
1,butv116_10291,32570,4.464,-0.620169608375422,0.4821931042779894,-0.2549508551195938,0.9770236583426595
1,butv116_10291,32570,4.472,-0.018572955228125014,0.4821931042779894,-0.2549508551195938,0.9770236583426595
1,butv116_10291,32570,4.48,0.7867441214463338,0.4821931042779894,-0.2549508551195938,0.9770236583426595
1,butv116_10291,32570,4.488,1.5987764700047018,0.4821931042779894,-0.2549508551195938,0.9770236583426595
1,butv116_10291,32570,4.496,1.0869076218184717,0.4821931042779894,-0.2549508551195938,0.9770236583426595
1,butv116_10291,32570,4.504,-0.36342255408530905,0.4821931042779894,-0.2549508551195938,0.9770236583426595
1,butv116_10291,32570,4.512,-0.4669050659211585,0.4821931042779894,-0.2549508551195938,0.9770236583426595
1,butv116_10291,32570,4.52,-0.7616664185505078,0.4821931042779894,-0.2549508551195938,0.9770236583426595
1,butv116_10291,32570,4.528,-0.5400602703437087,0.4821931042779894,-0.2549508551195938,0.9770236583426595
1,butv116_10291,32570,4.536,-0.2901165990864372,0.4821931042779894,-0.2549508551195938,0.9770236583426595
1,butv116_10291,32570,4.544,-0.4784021642225548,0.4821931042779894,-0.2549508551195938,0.9770236583426595
1,butv116_10291,32570,4.552,-0.5903427301327957,0.4821931042779894,-0.2549508551195938,0.9770236583426595
1,butv116_10291,32570,4.56,-0.7981063789312284,0.4821931042779894,-0.2549508551195938,0.9770236583426595
1,butv116_10291,32570,4.568,-0.7590413642005064,0.4821931042779894,-0.2549508551195938,0.9770236583426595
1,butv116_10291,32570,4.576,-0.8541611124600407,0.4821931042779894,-0.2549508551195938,0.9770236583426595
1,butv116_10291,32570,4.584,-0.6936137093873778,0.4821931042779894,-0.2549508551195938,0.9770236583426595
1,butv116_10291,32570,4.592,-0.7032260613529273,0.4821931042779894,-0.2549508551195938,0.9770236583426595
1,butv116_10291,32570,4.6,-0.7269021928370142,0.4821931042779894,-0.2549508551195938,0.9770236583426595
1,butv116_10291,32570,4.608,-0.684099224852833,0.4821931042779894,-0.2549508551195938,0.9770236583426595
1,butv116_10291,32570,4.616,-0.712126955749066,0.4821931042779894,-0.2549508551195938,0.9770236583426595
1,butv116_10291,32570,4.624,-0.705479085016436,0.4821931042779894,-0.2549508551195938,0.9770236583426595
1,butv116_10291,32570,4.632,-0.67883371057554,0.4821931042779894,-0.2549508551195938,0.9770236583426595
1,butv116_10291,32570,4.64,-0.7182048201219517,0.4821931042779894,-0.2549508551195938,0.9770236583426595
1,butv116_10291,32570,4.648,-0.669447120342646,0.4821931042779894,-0.2549508551195938,0.9770236583426595
1,butv116_10291,32570,4.656,-0.6841902017892679,0.4821931042779894,-0.2549508551195938,0.9770236583426595
1,butv116_10291,32570,4.664,-0.6784950679765567,0.4821931042779894,-0.2549508551195938,0.9770236583426595
1,butv116_10291,32570,4.672,-0.625210761427086,0.4821931042779894,-0.2549508551195938,0.9770236583426595
1,butv116_10291,32570,4.68,-0.6595379729280619,0.4821931042779894,-0.2549508551195938,0.9770236583426595
1,butv116_10291,32570,4.688,-0.5825973100537172,0.4821931042779894,-0.2549508551195938,0.9770236583426595
1,butv116_10291,32570,4.696,-0.572026339038738,0.4821931042779894,-0.2549508551195938,0.9770236583426595
1,butv116_10291,32570,4.704,-0.5850064062202478,0.4821931042779894,-0.2549508551195938,0.9770236583426595
1,butv116_10291,32570,4.712,-0.5054516129507075,0.4821931042779894,-0.2549508551195938,0.9770236583426595
1,butv116_10291,32570,4.72,-0.5024481976224542,0.4821931042779894,-0.2549508551195938,0.9770236583426595
1,butv116_10291,32570,4.728,-0.4301296841076153,0.4821931042779894,-0.2549508551195938,0.9770236583426595
1,butv116_10291,32570,4.736,-0.3820455161674454,0.4821931042779894,-0.2549508551195938,0.9770236583426595
1,butv116_10291,32570,4.744,-0.32711303692902727,0.4821931042779894,-0.2549508551195938,0.9770236583426595
1,butv116_10291,32570,4.752,-0.24848075763777608,0.4821931042779894,-0.2549508551195938,0.9770236583426595
1,butv116_10291,32570,4.76,-0.21786409146775254,0.4821931042779894,-0.2549508551195938,0.9770236583426595
1,butv116_10291,32570,4.768,-0.11022168862406559,0.4821931042779894,-0.2549508551195938,0.9770236583426595
1,butv116_10291,32570,4.776,-0.03555021126431415,0.4821931042779894,-0.2549508551195938,0.9770236583426595
1,butv116_10291,32570,4.784,0.04232589226817338,0.4821931042779894,-0.2549508551195938,0.9770236583426595
1,butv116_10291,32570,4.792,0.07133242352008644,0.4821931042779894,-0.2549508551195938,0.9770236583426595
1,butv116_10291,32570,4.8,0.09135930986576629,0.4821931042779894,-0.2549508551195938,0.9770236583426595
1,butv116_10291,32570,4.808,0.09328303931469294,0.4821931042779894,-0.2549508551195938,0.9770236583426595
1,butv116_10291,32570,4.816,-0.010478653093066476,0.4821931042779894,-0.2549508551195938,0.9770236583426595
1,butv116_10291,32570,4.824,-0.06485758543056798,0.4821931042779894,-0.2549508551195938,0.9770236583426595
1,butv116_10291,32570,4.832,-0.14935557328781074,0.4821931042779894,-0.2549508551195938,0.9770236583426595
1,butv116_10291,32570,4.84,-0.24669502714869568,0.4821931042779894,-0.2549508551195938,0.9770236583426595
1,butv116_10291,32570,4.848,-0.33006345707140167,0.4821931042779894,-0.2549508551195938,0.9770236583426595
1,butv116_10291,32570,4.856,-0.45244497092429076,0.4821931042779894,-0.2549508551195938,0.9770236583426595
1,butv116_10291,32570,4.864,-0.5285902298380625,0.4821931042779894,-0.2549508551195938,0.9770236583426595
1,butv116_10291,32570,4.872,-0.5742812673918026,0.4821931042779894,-0.2549508551195938,0.9770236583426595
1,butv116_10291,32570,4.88,-0.6413086373507654,0.4821931042779894,-0.2549508551195938,0.9770236583426595
1,butv116_10291,32570,4.888,-0.6613830008846401,0.4821931042779894,-0.2549508551195938,0.9770236583426595
1,butv116_10291,32570,4.896,-0.7175836672456032,0.4821931042779894,-0.2549508551195938,0.9770236583426595
1,butv116_10291,32570,4.904,-0.7055646840058896,0.4821931042779894,-0.2549508551195938,0.9770236583426595
1,butv116_10291,32570,4.912,-0.7034672846831542,0.4821931042779894,-0.2549508551195938,0.9770236583426595
1,butv116_10291,32570,4.92,-0.7389274503482061,0.4821931042779894,-0.2549508551195938,0.9770236583426595
1,butv116_10291,32570,4.928,-0.7284197822508202,0.4821931042779894,-0.2549508551195938,0.9770236583426595
1,butv116_10291,32570,4.936,-0.7309818698049146,0.4821931042779894,-0.2549508551195938,0.9770236583426595
1,butv116_10291,32570,4.944,-0.7701550036780747,0.4821931042779894,-0.2549508551195938,0.9770236583426595
1,butv116_10291,32570,4.952,-0.7376937717187917,0.4821931042779894,-0.2549508551195938,0.9770236583426595
1,butv116_10291,32570,4.96,-0.7601363366140262,0.4821931042779894,-0.2549508551195938,0.9770236583426595
1,butv116_10291,32570,4.968,-0.7308243967948663,0.4821931042779894,-0.2549508551195938,0.9770236583426595
1,butv116_10291,32570,4.976,-0.7636299294015193,0.4821931042779894,-0.2549508551195938,0.9770236583426595
1,butv116_10291,32570,4.984,-0.7176275871459511,0.4821931042779894,-0.2549508551195938,0.9770236583426595
1,butv116_10291,32570,4.992,-0.7576591197857315,0.4821931042779894,-0.2549508551195938,0.9770236583426595
1,butv116_10291,32570,5.0,-0.7716650303539381,0.4821931042779894,-0.2549508551195938,0.9770236583426595
1,butv116_10291,32570,5.008,-0.721228234690542,0.4821931042779894,-0.2549508551195938,0.9770236583426595
1,butv116_10291,32570,5.016,-0.7644009925499735,0.4821931042779894,-0.2549508551195938,0.9770236583426595
1,butv116_10291,32570,5.024,-0.7773518731650532,0.4821931042779894,-0.2549508551195938,0.9770236583426595
1,butv116_10291,32570,5.032,-0.7723475254380429,0.4821931042779894,-0.2549508551195938,0.9770236583426595
1,butv116_10291,32570,5.04,-0.7730445857952223,0.4821931042779894,-0.2549508551195938,0.9770236583426595
1,butv116_10291,32570,5.048,-0.7814905955091866,0.4821931042779894,-0.2549508551195938,0.9770236583426595
1,butv116_10291,32570,5.056,-0.8076971070682902,0.4821931042779894,-0.2549508551195938,0.9770236583426595
1,butv116_10291,32570,5.064,-0.7960880802453442,0.4821931042779894,-0.2549508551195938,0.9770236583426595
1,butv116_10291,32570,5.072,-0.7938209394710093,0.4821931042779894,-0.2549508551195938,0.9770236583426595
1,butv116_10291,32570,5.08,-0.8276159583019537,0.4821931042779894,-0.2549508551195938,0.9770236583426595
1,butv116_10291,32570,5.088,-0.771052336540029,0.4821931042779894,-0.2549508551195938,0.9770236583426595
1,butv116_10291,32570,5.096,-0.8269303260821098,0.4821931042779894,-0.2549508551195938,0.9770236583426595
1,butv116_10291,32570,5.104,-0.8074559957786254,0.4821931042779894,-0.2549508551195938,0.9770236583426595
1,butv116_10291,32570,5.112,-0.8062938550481195,0.4821931042779894,-0.2549508551195938,0.9770236583426595
1,butv116_10291,32570,5.12,-0.8279439010272553,0.4821931042779894,-0.2549508551195938,0.9770236583426595
1,butv116_10291,32570,5.128,-0.8085439096367322,0.4821931042779894,-0.2549508551195938,0.9770236583426595
1,butv116_10291,32570,5.136,-0.8397995291274097,0.4821931042779894,-0.2549508551195938,0.9770236583426595
1,butv116_10291,32570,5.144,-0.8316018573193665,0.4821931042779894,-0.2549508551195938,0.9770236583426595
1,butv116_10291,32570,5.152,-0.8200872806902807,0.4821931042779894,-0.2549508551195938,0.9770236583426595
1,butv116_10291,32570,5.16,-0.8318878408541572,0.4821931042779894,-0.2549508551195938,0.9770236583426595
1,butv116_10291,32570,5.168,-0.8024115935506602,0.4821931042779894,-0.2549508551195938,0.9770236583426595
1,butv116_10291,32570,5.176,-0.6997635598214204,0.4821931042779894,-0.2549508551195938,0.9770236583426595
1,butv116_10291,32570,5.184,-0.6407197521563051,0.4821931042779894,-0.2549508551195938,0.9770236583426595
1,butv116_10291,32570,5.192,-0.6466352697546905,0.4821931042779894,-0.2549508551195938,0.9770236583426595
1,butv116_10291,32570,5.2,-0.6051966757156274,0.4821931042779894,-0.2549508551195938,0.9770236583426595
1,butv116_10291,32570,5.208,-0.6110862559238839,0.4821931042779894,-0.2549508551195938,0.9770236583426595
1,butv116_10291,32570,5.216,-0.5084665684568584,0.4821931042779894,-0.2549508551195938,0.9770236583426595
1,butv116_10291,32570,5.224,-0.600425428378091,0.4821931042779894,-0.2549508551195938,0.9770236583426595
1,butv116_10291,32570,5.232,-0.6738215760294629,0.4821931042779894,-0.2549508551195938,0.9770236583426595
1,butv116_10291,32570,5.24,-0.7120145790652678,0.4821931042779894,-0.2549508551195938,0.9770236583426595
1,butv116_10291,32570,5.248,-0.7068739900147295,0.4821931042779894,-0.2549508551195938,0.9770236583426595
1,butv116_10291,32570,5.256,-0.7585722503669438,0.4821931042779894,-0.2549508551195938,0.9770236583426595
1,butv116_10291,32570,5.264,-0.8588346604274154,0.4821931042779894,-0.2549508551195938,0.9770236583426595
1,butv116_10291,32570,5.272,-0.9119653593662307,0.4821931042779894,-0.2549508551195938,0.9770236583426595
1,butv116_10291,32570,5.28,-0.9831335244197259,0.4821931042779894,-0.2549508551195938,0.9770236583426595
1,butv116_10291,32570,5.288,-0.9184331809155468,0.4821931042779894,-0.2549508551195938,0.9770236583426595
1,butv116_10291,32570,5.296,-0.9594184588403051,0.4821931042779894,-0.2549508551195938,0.9770236583426595
1,butv116_10291,32570,5.304,-0.968364449562694,0.4821931042779894,-0.2549508551195938,0.9770236583426595
1,butv116_10291,32570,5.312,-0.9103547762858717,0.4821931042779894,-0.2549508551195938,0.9770236583426595
1,butv116_10291,32570,5.32,-0.9431154366473988,0.4821931042779894,-0.2549508551195938,0.9770236583426595
1,butv116_10291,32570,5.328,-0.9135688278708954,0.4821931042779894,-0.2549508551195938,0.9770236583426595
1,butv116_10291,32570,5.336,-0.6008445721209518,0.4821931042779894,-0.2549508551195938,0.9770236583426595
1,butv116_10291,32570,5.344,0.13032440542268983,0.4821931042779894,-0.2549508551195938,0.9770236583426595
1,butv116_10291,32570,5.352,1.0246999007198776,0.4821931042779894,-0.2549508551195938,0.9770236583426595
1,butv116_10291,32570,5.36,1.5481580005698412,0.4821931042779894,-0.2549508551195938,0.9770236583426595
1,butv116_10291,32570,5.368,0.2544076193430754,0.4821931042779894,-0.2549508551195938,0.9770236583426595
1,butv116_10291,32570,5.376,-0.7533695908449954,0.4821931042779894,-0.2549508551195938,0.9770236583426595
1,butv116_10291,32570,5.384,-0.7274484465975909,0.4821931042779894,-0.2549508551195938,0.9770236583426595
1,butv116_10291,32570,5.392,-0.9463964324682844,0.4821931042779894,-0.2549508551195938,0.9770236583426595
1,butv116_10291,32570,5.4,-0.5438511627627658,0.4821931042779894,-0.2549508551195938,0.9770236583426595
1,butv116_10291,32570,5.408,-0.5215950333628854,0.4821931042779894,-0.2549508551195938,0.9770236583426595
1,butv116_10291,32570,5.416,-0.6869219747746809,0.4821931042779894,-0.2549508551195938,0.9770236583426595
1,butv116_10291,32570,5.424,-0.8866985320015597,0.4821931042779894,-0.2549508551195938,0.9770236583426595
1,butv116_10291,32570,5.432,-0.9372702245017386,0.4821931042779894,-0.2549508551195938,0.9770236583426595
1,butv116_10291,32570,5.44,-0.9822953489745666,0.4821931042779894,-0.2549508551195938,0.9770236583426595
1,butv116_10291,32570,5.448,-0.938274668141072,0.4821931042779894,-0.2549508551195938,0.9770236583426595
1,butv116_10291,32570,5.456,-0.8319269990306153,0.4821931042779894,-0.2549508551195938,0.9770236583426595
1,butv116_10291,32570,5.464,-0.8496873888351925,0.4821931042779894,-0.2549508551195938,0.9770236583426595
1,butv116_10291,32570,5.472,-0.8262981372103932,0.4821931042779894,-0.2549508551195938,0.9770236583426595
1,butv116_10291,32570,5.48,-0.8575194722890646,0.4821931042779894,-0.2549508551195938,0.9770236583426595
1,butv116_10291,32570,5.488,-0.8419225297185876,0.4821931042779894,-0.2549508551195938,0.9770236583426595
1,butv116_10291,32570,5.496,-0.8570392104195718,0.4821931042779894,-0.2549508551195938,0.9770236583426595
1,butv116_10291,32570,5.504,-0.8440625044549254,0.4821931042779894,-0.2549508551195938,0.9770236583426595
1,butv116_10291,32570,5.512,-0.8088247953259468,0.4821931042779894,-0.2549508551195938,0.9770236583426595
1,butv116_10291,32570,5.52,-0.8289462719161896,0.4821931042779894,-0.2549508551195938,0.9770236583426595
1,butv116_10291,32570,5.528,-0.7956958822576713,0.4821931042779894,-0.2549508551195938,0.9770236583426595
1,butv116_10291,32570,5.536,-0.7960492581905724,0.4821931042779894,-0.2549508551195938,0.9770236583426595
1,butv116_10291,32570,5.544,-0.7779801406170958,0.4821931042779894,-0.2549508551195938,0.9770236583426595
1,butv116_10291,32570,5.552,-0.7478439183824784,0.4821931042779894,-0.2549508551195938,0.9770236583426595
1,butv116_10291,32570,5.56,-0.7557046281999701,0.4821931042779894,-0.2549508551195938,0.9770236583426595
1,butv116_10291,32570,5.568,-0.6968104507055553,0.4821931042779894,-0.2549508551195938,0.9770236583426595
1,butv116_10291,32570,5.576,-0.6813070620044418,0.4821931042779894,-0.2549508551195938,0.9770236583426595
1,butv116_10291,32570,5.584,-0.644744865370457,0.4821931042779894,-0.2549508551195938,0.9770236583426595
1,butv116_10291,32570,5.592,-0.5954618073954085,0.4821931042779894,-0.2549508551195938,0.9770236583426595
1,butv116_10291,32570,5.6,-0.5643718958960945,0.4821931042779894,-0.2549508551195938,0.9770236583426595
1,butv116_10291,32570,5.608,-0.4759559266096841,0.4821931042779894,-0.2549508551195938,0.9770236583426595
1,butv116_10291,32570,5.616,-0.43452657591699523,0.4821931042779894,-0.2549508551195938,0.9770236583426595
1,butv116_10291,32570,5.624,-0.3452954835310801,0.4821931042779894,-0.2549508551195938,0.9770236583426595
1,butv116_10291,32570,5.632,-0.2788110621361118,0.4821931042779894,-0.2549508551195938,0.9770236583426595
1,butv116_10291,32570,5.64,-0.21573322002708636,0.4821931042779894,-0.2549508551195938,0.9770236583426595
1,butv116_10291,32570,5.648,-0.11679853264285182,0.4821931042779894,-0.2549508551195938,0.9770236583426595
1,butv116_10291,32570,5.656,-0.08174195809013256,0.4821931042779894,-0.2549508551195938,0.9770236583426595
1,butv116_10291,32570,5.664,-0.05140022895572898,0.4821931042779894,-0.2549508551195938,0.9770236583426595
1,butv116_10291,32570,5.672,-0.0451935319414849,0.4821931042779894,-0.2549508551195938,0.9770236583426595
1,butv116_10291,32570,5.68,-0.10436270949433588,0.4821931042779894,-0.2549508551195938,0.9770236583426595
1,butv116_10291,32570,5.688,-0.14421632872401777,0.4821931042779894,-0.2549508551195938,0.9770236583426595
1,butv116_10291,32570,5.696,-0.2491162236959344,0.4821931042779894,-0.2549508551195938,0.9770236583426595
1,butv116_10291,32570,5.704,-0.3254518955450153,0.4821931042779894,-0.2549508551195938,0.9770236583426595
1,butv116_10291,32570,5.712,-0.4148500123988988,0.4821931042779894,-0.2549508551195938,0.9770236583426595
1,butv116_10291,32570,5.72,-0.5304612512050506,0.4821931042779894,-0.2549508551195938,0.9770236583426595
1,butv116_10291,32570,5.728,-0.5911632591894224,0.4821931042779894,-0.2549508551195938,0.9770236583426595
1,butv116_10291,32570,5.736,-0.6794396819557222,0.4821931042779894,-0.2549508551195938,0.9770236583426595
1,butv116_10291,32570,5.744,-0.7275368466010972,0.4821931042779894,-0.2549508551195938,0.9770236583426595
1,butv116_10291,32570,5.752,-0.7467370136490936,0.4821931042779894,-0.2549508551195938,0.9770236583426595
1,butv116_10291,32570,5.76,-0.8035109355461024,0.4821931042779894,-0.2549508551195938,0.9770236583426595
1,butv116_10291,32570,5.768,-0.795821647788642,0.4821931042779894,-0.2549508551195938,0.9770236583426595
1,butv116_10291,32570,5.776,-0.8139936185981373,0.4821931042779894,-0.2549508551195938,0.9770236583426595
1,butv116_10291,32570,5.784,-0.8209515055661311,0.4821931042779894,-0.2549508551195938,0.9770236583426595
1,butv116_10291,32570,5.792,-0.8195022608952133,0.4821931042779894,-0.2549508551195938,0.9770236583426595
1,butv116_10291,32570,5.8,-0.8410877715105727,0.4821931042779894,-0.2549508551195938,0.9770236583426595
1,butv116_10291,32570,5.808,-0.8097457687465068,0.4821931042779894,-0.2549508551195938,0.9770236583426595
1,butv116_10291,32570,5.816,-0.8210747501844542,0.4821931042779894,-0.2549508551195938,0.9770236583426595
1,butv116_10291,32570,5.824,-0.8089529137087218,0.4821931042779894,-0.2549508551195938,0.9770236583426595
1,butv116_10291,32570,5.832,-0.7987609198950862,0.4821931042779894,-0.2549508551195938,0.9770236583426595
1,butv116_10291,32570,5.84,-0.8290862665985484,0.4821931042779894,-0.2549508551195938,0.9770236583426595
1,butv116_10291,32570,5.848,-0.8116385259825446,0.4821931042779894,-0.2549508551195938,0.9770236583426595
1,butv116_10291,32570,5.856,-0.8170042605426469,0.4821931042779894,-0.2549508551195938,0.9770236583426595
1,butv116_10291,32570,5.864,-0.8092839935697625,0.4821931042779894,-0.2549508551195938,0.9770236583426595
1,butv116_10291,32570,5.872,-0.8072391972909388,0.4821931042779894,-0.2549508551195938,0.9770236583426595
1,butv116_10291,32570,5.88,-0.842448504137422,0.4821931042779894,-0.2549508551195938,0.9770236583426595
1,butv116_10291,32570,5.888,-0.8080610148140298,0.4821931042779894,-0.2549508551195938,0.9770236583426595
1,butv116_10291,32570,5.896,-0.8241057835112682,0.4821931042779894,-0.2549508551195938,0.9770236583426595
1,butv116_10291,32570,5.904,-0.8337335970743891,0.4821931042779894,-0.2549508551195938,0.9770236583426595
1,butv116_10291,32570,5.912,-0.8277713585616029,0.4821931042779894,-0.2549508551195938,0.9770236583426595
1,butv116_10291,32570,5.92,-0.858196533405907,0.4821931042779894,-0.2549508551195938,0.9770236583426595
1,butv116_10291,32570,5.928,-0.8347164168852349,0.4821931042779894,-0.2549508551195938,0.9770236583426595
1,butv116_10291,32570,5.936,-0.8570131609888808,0.4821931042779894,-0.2549508551195938,0.9770236583426595
1,butv116_10291,32570,5.944,-0.8582167007070871,0.4821931042779894,-0.2549508551195938,0.9770236583426595
1,butv116_10291,32570,5.952,-0.8655659453585378,0.4821931042779894,-0.2549508551195938,0.9770236583426595
1,butv116_10291,32570,5.96,-0.8872925710618772,0.4821931042779894,-0.2549508551195938,0.9770236583426595
1,butv116_10291,32570,5.968,-0.8600011707398437,0.4821931042779894,-0.2549508551195938,0.9770236583426595
1,butv116_10291,32570,5.976,-0.8839482163031173,0.4821931042779894,-0.2549508551195938,0.9770236583426595
1,butv116_10291,32570,5.984,-0.8864723221066557,0.4821931042779894,-0.2549508551195938,0.9770236583426595
1,butv116_10291,32570,5.992,-0.8767153817957009,0.4821931042779894,-0.2549508551195938,0.9770236583426595
1,butv116_10291,32570,6.0,-0.9002863071919646,0.4821931042779894,-0.2549508551195938,0.9770236583426595
1,butv116_10291,32570,6.008,-0.884013984113077,0.4821931042779894,-0.2549508551195938,0.9770236583426595
1,butv116_10291,32570,6.016,-0.9020498256396062,0.4821931042779894,-0.2549508551195938,0.9770236583426595
1,butv116_10291,32570,6.024,-0.8971542692984067,0.4821931042779894,-0.2549508551195938,0.9770236583426595
1,butv116_10291,32570,6.032,-0.8630083394269278,0.4821931042779894,-0.2549508551195938,0.9770236583426595
1,butv116_10291,32570,6.04,-0.9085341731718339,0.4821931042779894,-0.2549508551195938,0.9770236583426595
1,butv116_10291,32570,6.048,-0.8601481119370535,0.4821931042779894,-0.2549508551195938,0.9770236583426595
1,butv116_10291,32570,6.056,-0.8467871068443632,0.4821931042779894,-0.2549508551195938,0.9770236583426595
1,butv116_10291,32570,6.064,-0.7089576643686061,0.4821931042779894,-0.2549508551195938,0.9770236583426595
1,butv116_10291,32570,6.072,-0.6559104916688452,0.4821931042779894,-0.2549508551195938,0.9770236583426595
1,butv116_10291,32570,6.08,-0.6549331058252619,0.4821931042779894,-0.2549508551195938,0.9770236583426595
1,butv116_10291,32570,6.088,-0.62885454458809,0.4821931042779894,-0.2549508551195938,0.9770236583426595
1,butv116_10291,32570,6.096,-0.6491264356329681,0.4821931042779894,-0.2549508551195938,0.9770236583426595
1,butv116_10291,32570,6.104,-0.5821220900095194,0.4821931042779894,-0.2549508551195938,0.9770236583426595
1,butv116_10291,32570,6.112,-0.6876543839292065,0.4821931042779894,-0.2549508551195938,0.9770236583426595
1,butv116_10291,32570,6.12,-0.753091786271239,0.4821931042779894,-0.2549508551195938,0.9770236583426595
1,butv116_10291,32570,6.128,-0.7384168815066621,0.4821931042779894,-0.2549508551195938,0.9770236583426595
1,butv116_10291,32570,6.136,-0.7616281006782655,0.4821931042779894,-0.2549508551195938,0.9770236583426595
1,butv116_10291,32570,6.144,-0.8186157959677838,0.4821931042779894,-0.2549508551195938,0.9770236583426595
1,butv116_10291,32570,6.152,-0.8902738583791133,0.4821931042779894,-0.2549508551195938,0.9770236583426595
1,butv116_10291,32570,6.16,-0.9680638447345477,0.4821931042779894,-0.2549508551195938,0.9770236583426595
1,butv116_10291,32570,6.168,-0.9735374743559636,0.4821931042779894,-0.2549508551195938,0.9770236583426595
1,butv116_10291,32570,6.176,-1.0003506855589033,0.4821931042779894,-0.2549508551195938,0.9770236583426595
1,butv116_10291,32570,6.184,-0.9817314488254573,0.4821931042779894,-0.2549508551195938,0.9770236583426595
1,butv116_10291,32570,6.192,-0.9769538151758805,0.4821931042779894,-0.2549508551195938,0.9770236583426595
1,butv116_10291,32570,6.2,-0.9876708310635726,0.4821931042779894,-0.2549508551195938,0.9770236583426595
1,butv116_10291,32570,6.208,-0.9687960298079491,0.4821931042779894,-0.2549508551195938,0.9770236583426595
1,butv116_10291,32570,6.216,-0.9520570577878652,0.4821931042779894,-0.2549508551195938,0.9770236583426595
1,butv116_10291,32570,6.224,-0.5283640759634395,0.4821931042779894,-0.2549508551195938,0.9770236583426595
1,butv116_10291,32570,6.232,0.28277312452393527,0.4821931042779894,-0.2549508551195938,0.9770236583426595
1,butv116_10291,32570,6.24,1.0738941105291715,0.4821931042779894,-0.2549508551195938,0.9770236583426595
1,butv116_10291,32570,6.248,1.415067369688889,0.4821931042779894,-0.2549508551195938,0.9770236583426595
1,butv116_10291,32570,6.256,-0.019973852645857694,0.4821931042779894,-0.2549508551195938,0.9770236583426595
1,butv116_10291,32570,6.264,-0.9259638192370567,0.4821931042779894,-0.2549508551195938,0.9770236583426595
1,butv116_10291,32570,6.272,-0.945640158674029,0.4821931042779894,-0.2549508551195938,0.9770236583426595
1,butv116_10291,32570,6.28,-1.08535048208624,0.4821931042779894,-0.2549508551195938,0.9770236583426595
1,butv116_10291,32570,6.288,-0.6046098072512851,0.4821931042779894,-0.2549508551195938,0.9770236583426595
1,butv116_10291,32570,6.296,-0.6870907638815026,0.4821931042779894,-0.2549508551195938,0.9770236583426595
1,butv116_10291,32570,6.304,-0.8161137621549813,0.4821931042779894,-0.2549508551195938,0.9770236583426595
1,butv116_10291,32570,6.312,-0.9887449639325395,0.4821931042779894,-0.2549508551195938,0.9770236583426595
1,butv116_10291,32570,6.32,-1.0015963525284637,0.4821931042779894,-0.2549508551195938,0.9770236583426595
1,butv116_10291,32570,6.328,-0.9908366491866071,0.4821931042779894,-0.2549508551195938,0.9770236583426595
1,butv116_10291,32570,6.336,-0.9010069520874685,0.4821931042779894,-0.2549508551195938,0.9770236583426595
1,butv116_10291,32570,6.344,-0.7932550225917819,0.4821931042779894,-0.2549508551195938,0.9770236583426595
1,butv116_10291,32570,6.352,-0.7923988646364037,0.4821931042779894,-0.2549508551195938,0.9770236583426595
1,butv116_10291,32570,6.36,-0.8089930242299579,0.4821931042779894,-0.2549508551195938,0.9770236583426595
1,butv116_10291,32570,6.368,-0.7835257562996687,0.4821931042779894,-0.2549508551195938,0.9770236583426595
1,butv116_10291,32570,6.376,-0.7869838882492532,0.4821931042779894,-0.2549508551195938,0.9770236583426595
1,butv116_10291,32570,6.384,-0.7734414894865037,0.4821931042779894,-0.2549508551195938,0.9770236583426595
1,butv116_10291,32570,6.392,-0.7461642622955775,0.4821931042779894,-0.2549508551195938,0.9770236583426595
1,butv116_10291,32570,6.4,-0.7484699450232788,0.4821931042779894,-0.2549508551195938,0.9770236583426595
1,butv116_10291,32570,6.408,-0.7214480582734056,0.4821931042779894,-0.2549508551195938,0.9770236583426595
1,butv116_10291,32570,6.416,-0.7151131728510353,0.4821931042779894,-0.2549508551195938,0.9770236583426595
1,butv116_10291,32570,6.424,-0.6778353171265605,0.4821931042779894,-0.2549508551195938,0.9770236583426595
1,butv116_10291,32570,6.432,-0.6506775251748457,0.4821931042779894,-0.2549508551195938,0.9770236583426595
1,butv116_10291,32570,6.44,-0.6541067506594054,0.4821931042779894,-0.2549508551195938,0.9770236583426595
1,butv116_10291,32570,6.448,-0.5990492901739513,0.4821931042779894,-0.2549508551195938,0.9770236583426595
1,butv116_10291,32570,6.456,-0.5860156115834709,0.4821931042779894,-0.2549508551195938,0.9770236583426595
1,butv116_10291,32570,6.464,-0.5387428974143967,0.4821931042779894,-0.2549508551195938,0.9770236583426595
1,butv116_10291,32570,6.472,-0.4866949024475501,0.4821931042779894,-0.2549508551195938,0.9770236583426595
1,butv116_10291,32570,6.48,-0.4433264937565306,0.4821931042779894,-0.2549508551195938,0.9770236583426595
1,butv116_10291,32570,6.488,-0.3713421972384716,0.4821931042779894,-0.2549508551195938,0.9770236583426595
1,butv116_10291,32570,6.496,-0.318581512256031,0.4821931042779894,-0.2549508551195938,0.9770236583426595
1,butv116_10291,32570,6.504,-0.22720404481666742,0.4821931042779894,-0.2549508551195938,0.9770236583426595
1,butv116_10291,32570,6.512,-0.1390516509526254,0.4821931042779894,-0.2549508551195938,0.9770236583426595
1,butv116_10291,32570,6.52,-0.06507760508441528,0.4821931042779894,-0.2549508551195938,0.9770236583426595
1,butv116_10291,32570,6.528,0.030633703337999682,0.4821931042779894,-0.2549508551195938,0.9770236583426595
1,butv116_10291,32570,6.536,0.10023248822785263,0.4821931042779894,-0.2549508551195938,0.9770236583426595
1,butv116_10291,32570,6.544,0.16052654952303977,0.4821931042779894,-0.2549508551195938,0.9770236583426595
1,butv116_10291,32570,6.552,0.21381627603470263,0.4821931042779894,-0.2549508551195938,0.9770236583426595
1,butv116_10291,32570,6.56,0.16403381125911043,0.4821931042779894,-0.2549508551195938,0.9770236583426595
1,butv116_10291,32570,6.568,0.12900410543369265,0.4821931042779894,-0.2549508551195938,0.9770236583426595
1,butv116_10291,32570,6.576,0.02814646063002977,0.4821931042779894,-0.2549508551195938,0.9770236583426595
1,butv116_10291,32570,6.584,-0.05622303946070979,0.4821931042779894,-0.2549508551195938,0.9770236583426595
1,butv116_10291,32570,6.592,-0.12712262227921733,0.4821931042779894,-0.2549508551195938,0.9770236583426595
1,butv116_10291,32570,6.6,-0.25437669614793246,0.4821931042779894,-0.2549508551195938,0.9770236583426595
1,butv116_10291,32570,6.608,-0.33781893279092967,0.4821931042779894,-0.2549508551195938,0.9770236583426595
1,butv116_10291,32570,6.616,-0.4389953137368294,0.4821931042779894,-0.2549508551195938,0.9770236583426595
1,butv116_10291,32570,6.624,-0.5005967273335546,0.4821931042779894,-0.2549508551195938,0.9770236583426595
1,butv116_10291,32570,6.632,-0.5205306480228221,0.4821931042779894,-0.2549508551195938,0.9770236583426595
1,butv116_10291,32570,6.64,-0.5675144095822098,0.4821931042779894,-0.2549508551195938,0.9770236583426595
1,butv116_10291,32570,6.648,-0.5654526951785072,0.4821931042779894,-0.2549508551195938,0.9770236583426595
1,butv116_10291,32570,6.656,-0.6031015732244154,0.4821931042779894,-0.2549508551195938,0.9770236583426595
1,butv116_10291,32570,6.664,-0.605331460511848,0.4821931042779894,-0.2549508551195938,0.9770236583426595
1,butv116_10291,32570,6.672,-0.5896204046288601,0.4821931042779894,-0.2549508551195938,0.9770236583426595
1,butv116_10291,32570,6.68,-0.5957908705263312,0.4821931042779894,-0.2549508551195938,0.9770236583426595
1,butv116_10291,32570,6.688,-0.5704134031065747,0.4821931042779894,-0.2549508551195938,0.9770236583426595
1,butv116_10291,32570,6.696,-0.5910290906162933,0.4821931042779894,-0.2549508551195938,0.9770236583426595
1,butv116_10291,32570,6.704,-0.5821121744197726,0.4821931042779894,-0.2549508551195938,0.9770236583426595
1,butv116_10291,32570,6.712,-0.5770949980484005,0.4821931042779894,-0.2549508551195938,0.9770236583426595
1,butv116_10291,32570,6.72,-0.5837201245469218,0.4821931042779894,-0.2549508551195938,0.9770236583426595
1,butv116_10291,32570,6.728,-0.5606701877644785,0.4821931042779894,-0.2549508551195938,0.9770236583426595
1,butv116_10291,32570,6.736,-0.570822967381375,0.4821931042779894,-0.2549508551195938,0.9770236583426595
1,butv116_10291,32570,6.744,-0.5576226844750342,0.4821931042779894,-0.2549508551195938,0.9770236583426595
1,butv116_10291,32570,6.752,-0.5449820441764425,0.4821931042779894,-0.2549508551195938,0.9770236583426595
1,butv116_10291,32570,6.76,-0.5575045377022871,0.4821931042779894,-0.2549508551195938,0.9770236583426595
1,butv116_10291,32570,6.768,-0.5458936061897851,0.4821931042779894,-0.2549508551195938,0.9770236583426595
1,butv116_10291,32570,6.776,-0.563034131584478,0.4821931042779894,-0.2549508551195938,0.9770236583426595
1,butv116_10291,32570,6.784,-0.549136844341239,0.4821931042779894,-0.2549508551195938,0.9770236583426595
1,butv116_10291,32570,6.792,-0.5464884855543184,0.4821931042779894,-0.2549508551195938,0.9770236583426595
1,butv116_10291,32570,6.8,-0.5562179199072749,0.4821931042779894,-0.2549508551195938,0.9770236583426595
1,butv116_10291,32570,6.808,-0.5293551867758817,0.4821931042779894,-0.2549508551195938,0.9770236583426595
1,butv116_10291,32570,6.816,-0.5349141352853459,0.4821931042779894,-0.2549508551195938,0.9770236583426595
1,butv116_10291,32570,6.824,-0.5331194695614371,0.4821931042779894,-0.2549508551195938,0.9770236583426595
1,butv116_10291,32570,6.832,-0.5368634730052502,0.4821931042779894,-0.2549508551195938,0.9770236583426595
1,butv116_10291,32570,6.84,-0.5388130348062787,0.4821931042779894,-0.2549508551195938,0.9770236583426595
1,butv116_10291,32570,6.848,-0.5066557128717244,0.4821931042779894,-0.2549508551195938,0.9770236583426595
1,butv116_10291,32570,6.856,-0.5395263970652454,0.4821931042779894,-0.2549508551195938,0.9770236583426595
1,butv116_10291,32570,6.864,-0.5318673042392742,0.4821931042779894,-0.2549508551195938,0.9770236583426595
1,butv116_10291,32570,6.872,-0.5059133881274519,0.4821931042779894,-0.2549508551195938,0.9770236583426595
1,butv116_10291,32570,6.88,-0.5254032360487887,0.4821931042779894,-0.2549508551195938,0.9770236583426595
1,butv116_10291,32570,6.888,-0.5036237272001325,0.4821931042779894,-0.2549508551195938,0.9770236583426595
1,butv116_10291,32570,6.896,-0.5160884638162085,0.4821931042779894,-0.2549508551195938,0.9770236583426595
1,butv116_10291,32570,6.904,-0.5221052660827431,0.4821931042779894,-0.2549508551195938,0.9770236583426595
1,butv116_10291,32570,6.912,-0.48591336350653835,0.4821931042779894,-0.2549508551195938,0.9770236583426595
1,butv116_10291,32570,6.92,-0.4973524247967607,0.4821931042779894,-0.2549508551195938,0.9770236583426595
1,butv116_10291,32570,6.928,-0.48509205016597684,0.4821931042779894,-0.2549508551195938,0.9770236583426595
1,butv116_10291,32570,6.936,-0.48447801186532247,0.4821931042779894,-0.2549508551195938,0.9770236583426595
1,butv116_10291,32570,6.944,-0.41832859175106885,0.4821931042779894,-0.2549508551195938,0.9770236583426595
1,butv116_10291,32570,6.952,-0.2608776817036338,0.4821931042779894,-0.2549508551195938,0.9770236583426595
1,butv116_10291,32570,6.96,-0.27855997923641895,0.4821931042779894,-0.2549508551195938,0.9770236583426595
1,butv116_10291,32570,6.968,-0.21367165967915666,0.4821931042779894,-0.2549508551195938,0.9770236583426595
1,butv116_10291,32570,6.976,-0.23000875620801525,0.4821931042779894,-0.2549508551195938,0.9770236583426595
1,butv116_10291,32570,6.984,-0.1928239361653043,0.4821931042779894,-0.2549508551195938,0.9770236583426595
1,butv116_10291,32570,6.992,-0.16891883578747147,0.4821931042779894,-0.2549508551195938,0.9770236583426595
1,butv116_10291,32570,7.0,-0.3015261376885431,0.4821931042779894,-0.2549508551195938,0.9770236583426595
1,butv116_10291,32570,7.008,-0.2817608100351135,0.4821931042779894,-0.2549508551195938,0.9770236583426595
1,butv116_10291,32570,7.016,-0.28748196526837533,0.4821931042779894,-0.2549508551195938,0.9770236583426595
1,butv116_10291,32570,7.024,-0.2879946628805995,0.4821931042779894,-0.2549508551195938,0.9770236583426595
1,butv116_10291,32570,7.032,-0.373438756256991,0.4821931042779894,-0.2549508551195938,0.9770236583426595
1,butv116_10291,32570,7.04,-0.46345676553089926,0.4821931042779894,-0.2549508551195938,0.9770236583426595
1,butv116_10291,32570,7.048,-0.4830782331025771,0.4821931042779894,-0.2549508551195938,0.9770236583426595
1,butv116_10291,32570,7.056,-0.5151309651724,0.4821931042779894,-0.2549508551195938,0.9770236583426595
1,butv116_10291,32570,7.064,-0.5035245713026635,0.4821931042779894,-0.2549508551195938,0.9770236583426595
1,butv116_10291,32570,7.072,-0.4858118547572649,0.4821931042779894,-0.2549508551195938,0.9770236583426595
1,butv116_10291,32570,7.08,-0.5103137812043977,0.4821931042779894,-0.2549508551195938,0.9770236583426595
1,butv116_10291,32570,7.088,-0.4700772143359524,0.4821931042779894,-0.2549508551195938,0.9770236583426595
1,butv116_10291,32570,7.096,-0.49556436946601645,0.4821931042779894,-0.2549508551195938,0.9770236583426595
1,butv116_10291,32570,7.104,-0.38080553525641225,0.4821931042779894,-0.2549508551195938,0.9770236583426595
1,butv116_10291,32570,7.112,0.15863666332640608,0.4821931042779894,-0.2549508551195938,0.9770236583426595
1,butv116_10291,32570,7.12,0.9630779276800048,0.4821931042779894,-0.2549508551195938,0.9770236583426595
1,butv116_10291,32570,7.128,1.749079780402347,0.4821931042779894,-0.2549508551195938,0.9770236583426595
1,butv116_10291,32570,7.136,1.7207539095703341,0.4821931042779894,-0.2549508551195938,0.9770236583426595
1,butv116_10291,32570,7.144,0.22787484566710178,0.4821931042779894,-0.2549508551195938,0.9770236583426595
1,butv116_10291,32570,7.152,-0.2856769918127522,0.4821931042779894,-0.2549508551195938,0.9770236583426595
1,butv116_10291,32570,7.16,-0.4297705941060466,0.4821931042779894,-0.2549508551195938,0.9770236583426595
1,butv116_10291,32570,7.168,-0.3855616571180635,0.4821931042779894,-0.2549508551195938,0.9770236583426595
1,butv116_10291,32570,7.176,-0.002733883374438378,0.4821931042779894,-0.2549508551195938,0.9770236583426595
1,butv116_10291,32570,7.184,-0.15400569077263385,0.4821931042779894,-0.2549508551195938,0.9770236583426595
1,butv116_10291,32570,7.192,-0.26502237020769975,0.4821931042779894,-0.2549508551195938,0.9770236583426595
1,butv116_10291,32570,7.2,-0.46546974229008314,0.4821931042779894,-0.2549508551195938,0.9770236583426595
1,butv116_10291,32570,7.208,-0.4078842545814167,0.4821931042779894,-0.2549508551195938,0.9770236583426595
1,butv116_10291,32570,7.216,-0.46160523922171864,0.4821931042779894,-0.2549508551195938,0.9770236583426595
1,butv116_10291,32570,7.224,-0.3014591094222596,0.4821931042779894,-0.2549508551195938,0.9770236583426595
1,butv116_10291,32570,7.232,-0.23436485124771614,0.4821931042779894,-0.2549508551195938,0.9770236583426595
1,butv116_10291,32570,7.24,-0.25912293042997736,0.4821931042779894,-0.2549508551195938,0.9770236583426595
1,butv116_10291,32570,7.248,-0.24008541826802685,0.4821931042779894,-0.2549508551195938,0.9770236583426595
1,butv116_10291,32570,7.256,-0.2509369668606748,0.4821931042779894,-0.2549508551195938,0.9770236583426595
1,butv116_10291,32570,7.264,-0.22869177542067062,0.4821931042779894,-0.2549508551195938,0.9770236583426595
1,butv116_10291,32570,7.272,-0.2014874166103279,0.4821931042779894,-0.2549508551195938,0.9770236583426595
1,butv116_10291,32570,7.28,-0.2191744898720731,0.4821931042779894,-0.2549508551195938,0.9770236583426595
1,butv116_10291,32570,7.288,-0.1841091131326929,0.4821931042779894,-0.2549508551195938,0.9770236583426595
1,butv116_10291,32570,7.296,-0.18341733268700308,0.4821931042779894,-0.2549508551195938,0.9770236583426595
1,butv116_10291,32570,7.304,-0.15092121409769252,0.4821931042779894,-0.2549508551195938,0.9770236583426595
1,butv116_10291,32570,7.312,-0.11559001412216667,0.4821931042779894,-0.2549508551195938,0.9770236583426595
1,butv116_10291,32570,7.32,-0.11109682344965158,0.4821931042779894,-0.2549508551195938,0.9770236583426595
1,butv116_10291,32570,7.328,-0.05491815905407325,0.4821931042779894,-0.2549508551195938,0.9770236583426595
1,butv116_10291,32570,7.336,-0.05931105241589276,0.4821931042779894,-0.2549508551195938,0.9770236583426595
1,butv116_10291,32570,7.344,0.004740286066108685,0.4821931042779894,-0.2549508551195938,0.9770236583426595
1,butv116_10291,32570,7.352,0.052272261658251495,0.4821931042779894,-0.2549508551195938,0.9770236583426595
1,butv116_10291,32570,7.36,0.0665038814401001,0.4821931042779894,-0.2549508551195938,0.9770236583426595
1,butv116_10291,32570,7.368,0.1631930448759523,0.4821931042779894,-0.2549508551195938,0.9770236583426595
1,butv116_10291,32570,7.376,0.20868977608484987,0.4821931042779894,-0.2549508551195938,0.9770236583426595
1,butv116_10291,32570,7.384,0.27772090746676276,0.4821931042779894,-0.2549508551195938,0.9770236583426595
1,butv116_10291,32570,7.392,0.3769239460023256,0.4821931042779894,-0.2549508551195938,0.9770236583426595
1,butv116_10291,32570,7.4,0.4469298582847528,0.4821931042779894,-0.2549508551195938,0.9770236583426595
1,butv116_10291,32570,7.408,0.528070305609582,0.4821931042779894,-0.2549508551195938,0.9770236583426595
1,butv116_10291,32570,7.416,0.6149576494868183,0.4821931042779894,-0.2549508551195938,0.9770236583426595
1,butv116_10291,32570,7.424,0.6960412922466569,0.4821931042779894,-0.2549508551195938,0.9770236583426595
1,butv116_10291,32570,7.432,0.7713593837004968,0.4821931042779894,-0.2549508551195938,0.9770236583426595
1,butv116_10291,32570,7.44,0.7691889899515456,0.4821931042779894,-0.2549508551195938,0.9770236583426595
1,butv116_10291,32570,7.448,0.7595777583916172,0.4821931042779894,-0.2549508551195938,0.9770236583426595
1,butv116_10291,32570,7.456,0.6790328626746939,0.4821931042779894,-0.2549508551195938,0.9770236583426595
1,butv116_10291,32570,7.464,0.6029522791754013,0.4821931042779894,-0.2549508551195938,0.9770236583426595
1,butv116_10291,32570,7.472,0.5245943031903406,0.4821931042779894,-0.2549508551195938,0.9770236583426595
1,butv116_10291,32570,7.48,0.4093360481751225,0.4821931042779894,-0.2549508551195938,0.9770236583426595
1,butv116_10291,32570,7.488,0.34195482611086986,0.4821931042779894,-0.2549508551195938,0.9770236583426595
1,butv116_10291,32570,7.496,0.23056575185748443,0.4821931042779894,-0.2549508551195938,0.9770236583426595
1,butv116_10291,32570,7.504,0.15517489005855284,0.4821931042779894,-0.2549508551195938,0.9770236583426595
1,butv116_10291,32570,7.512,0.11767676258896614,0.4821931042779894,-0.2549508551195938,0.9770236583426595
1,butv116_10291,32570,7.52,0.0356279078928712,0.4821931042779894,-0.2549508551195938,0.9770236583426595
1,butv116_10291,32570,7.528,0.03787562363474987,0.4821931042779894,-0.2549508551195938,0.9770236583426595
1,butv116_10291,32570,7.536,0.006685387252258168,0.4821931042779894,-0.2549508551195938,0.9770236583426595
1,butv116_10291,32570,7.544,0.005640889987286631,0.4821931042779894,-0.2549508551195938,0.9770236583426595
1,butv116_10291,32570,7.552,0.012809097660311422,0.4821931042779894,-0.2549508551195938,0.9770236583426595
1,butv116_10291,32570,7.56,-0.027037523410822936,0.4821931042779894,-0.2549508551195938,0.9770236583426595
1,butv116_10291,32570,7.568,-0.0008117755047605538,0.4821931042779894,-0.2549508551195938,0.9770236583426595
1,butv116_10291,32570,7.576,-0.027735611390032902,0.4821931042779894,-0.2549508551195938,0.9770236583426595
1,butv116_10291,32570,7.584,0.001523476029315979,0.4821931042779894,-0.2549508551195938,0.9770236583426595
1,butv116_10291,32570,7.592,0.018724519849155703,0.4821931042779894,-0.2549508551195938,0.9770236583426595
1,butv116_10291,32570,7.6,-0.01225201622978688,0.4821931042779894,-0.2549508551195938,0.9770236583426595
1,butv116_10291,32570,7.608,0.024115974720797757,0.4821931042779894,-0.2549508551195938,0.9770236583426595
1,butv116_10291,32570,7.616,0.019358385828036357,0.4821931042779894,-0.2549508551195938,0.9770236583426595
1,butv116_10291,32570,7.624,0.0381387123809265,0.4821931042779894,-0.2549508551195938,0.9770236583426595
1,butv116_10291,32570,7.632,0.020437133367655375,0.4821931042779894,-0.2549508551195938,0.9770236583426595
1,butv116_10291,32570,7.64,0.0250146328125259,0.4821931042779894,-0.2549508551195938,0.9770236583426595
1,butv116_10291,32570,7.648,0.050465250464904965,0.4821931042779894,-0.2549508551195938,0.9770236583426595
1,butv116_10291,32570,7.656,0.014753849595021197,0.4821931042779894,-0.2549508551195938,0.9770236583426595
1,butv116_10291,32570,7.664,0.009244464153904317,0.4821931042779894,-0.2549508551195938,0.9770236583426595
1,butv116_10291,32570,7.672,0.03267839808006397,0.4821931042779894,-0.2549508551195938,0.9770236583426595
1,butv116_10291,32570,7.68,-0.010158356260812117,0.4821931042779894,-0.2549508551195938,0.9770236583426595
1,butv116_10291,32570,7.688,0.02813966642031795,0.4821931042779894,-0.2549508551195938,0.9770236583426595
1,butv116_10291,32570,7.696,-0.0007170027019183772,0.4821931042779894,-0.2549508551195938,0.9770236583426595
1,butv116_10291,32570,7.704,0.015771972686734963,0.4821931042779894,-0.2549508551195938,0.9770236583426595
1,butv116_10291,32570,7.712,0.008288785293913227,0.4821931042779894,-0.2549508551195938,0.9770236583426595
1,butv116_10291,32570,7.72,-0.007385800510790403,0.4821931042779894,-0.2549508551195938,0.9770236583426595
1,butv116_10291,32570,7.728,0.027601469076410617,0.4821931042779894,-0.2549508551195938,0.9770236583426595
1,butv116_10291,32570,7.736,0.012119601791708415,0.4821931042779894,-0.2549508551195938,0.9770236583426595
1,butv116_10291,32570,7.744,-0.0033081052603322614,0.4821931042779894,-0.2549508551195938,0.9770236583426595
1,butv116_10291,32570,7.752,0.008541689728057264,0.4821931042779894,-0.2549508551195938,0.9770236583426595
1,butv116_10291,32570,7.76,-0.01301327582905636,0.4821931042779894,-0.2549508551195938,0.9770236583426595
1,butv116_10291,32570,7.768,0.023818361725786604,0.4821931042779894,-0.2549508551195938,0.9770236583426595
1,butv116_10291,32570,7.776,0.02179702919155644,0.4821931042779894,-0.2549508551195938,0.9770236583426595
1,butv116_10291,32570,7.784,0.004430270268403432,0.4821931042779894,-0.2549508551195938,0.9770236583426595
1,butv116_10291,32570,7.792,0.018249296303690404,0.4821931042779894,-0.2549508551195938,0.9770236583426595
1,butv116_10291,32570,7.8,0.00979894764389489,0.4821931042779894,-0.2549508551195938,0.9770236583426595
1,butv116_10291,32570,7.808,0.06242599011865826,0.4821931042779894,-0.2549508551195938,0.9770236583426595
1,butv116_10291,32570,7.816,0.015435091225337365,0.4821931042779894,-0.2549508551195938,0.9770236583426595
1,butv116_10291,32570,7.824,0.02190525687328899,0.4821931042779894,-0.2549508551195938,0.9770236583426595
1,butv116_10291,32570,7.832,0.02900224570041227,0.4821931042779894,-0.2549508551195938,0.9770236583426595
1,butv116_10291,32570,7.84,0.025422231125587738,0.4821931042779894,-0.2549508551195938,0.9770236583426595
1,butv116_10291,32570,7.848,0.06050601402856237,0.4821931042779894,-0.2549508551195938,0.9770236583426595
1,butv116_10291,32570,7.856,0.20267748345094025,0.4821931042779894,-0.2549508551195938,0.9770236583426595
1,butv116_10291,32570,7.864,0.23701410635913367,0.4821931042779894,-0.2549508551195938,0.9770236583426595
1,butv116_10291,32570,7.872,0.2495170488068898,0.4821931042779894,-0.2549508551195938,0.9770236583426595
1,butv116_10291,32570,7.88,0.280667182108339,0.4821931042779894,-0.2549508551195938,0.9770236583426595
1,butv116_10291,32570,7.888,0.2961906820903516,0.4821931042779894,-0.2549508551195938,0.9770236583426595
1,butv116_10291,32570,7.896,0.3787019176824798,0.4821931042779894,-0.2549508551195938,0.9770236583426595
1,butv116_10291,32570,7.904,0.2879719746667718,0.4821931042779894,-0.2549508551195938,0.9770236583426595
1,butv116_10291,32570,7.912,0.21242254746231132,0.4821931042779894,-0.2549508551195938,0.9770236583426595
1,butv116_10291,32570,7.92,0.15541482492231554,0.4821931042779894,-0.2549508551195938,0.9770236583426595
1,butv116_10291,32570,7.928,0.20396718236141062,0.4821931042779894,-0.2549508551195938,0.9770236583426595
1,butv116_10291,32570,7.936,0.1388079487249617,0.4821931042779894,-0.2549508551195938,0.9770236583426595
1,butv116_10291,32570,7.944,0.0442788362936707,0.4821931042779894,-0.2549508551195938,0.9770236583426595
1,butv116_10291,32570,7.952,0.0007170027019183772,0.4821931042779894,-0.2549508551195938,0.9770236583426595
1,butv116_10291,32570,7.96,-0.05949230603524933,0.4821931042779894,-0.2549508551195938,0.9770236583426595
1,butv116_10291,32570,7.968,-0.025917765524203388,0.4821931042779894,-0.2549508551195938,0.9770236583426595
1,butv116_10291,32570,7.976,-0.056165664189105784,0.4821931042779894,-0.2549508551195938,0.9770236583426595
1,butv116_10291,32570,7.984,-0.016227048187991727,0.4821931042779894,-0.2549508551195938,0.9770236583426595
1,butv116_10291,32570,7.992,-0.01888440173128942,0.4821931042779894,-0.2549508551195938,0.9770236583426595
1,butv116_10291,32570,8.0,-0.012132778812193046,0.4821931042779894,-0.2549508551195938,0.9770236583426595
1,butv116_10291,32570,8.008,-0.017075545369935607,0.4821931042779894,-0.2549508551195938,0.9770236583426595
1,butv116_10291,32570,8.016,0.18867506014522942,0.4821931042779894,-0.2549508551195938,0.9770236583426595
1,butv116_10291,32570,8.024,0.7810817594980402,0.4821931042779894,-0.2549508551195938,0.9770236583426595
1,butv116_10291,32570,8.032,1.6612246301495879,0.4821931042779894,-0.2549508551195938,0.9770236583426595
1,butv116_10291,32570,8.04,2.3616091187662325,0.4821931042779894,-0.2549508551195938,0.9770236583426595
1,butv116_10291,32570,8.048,1.711477175108591,0.4821931042779894,-0.2549508551195938,0.9770236583426595
1,butv116_10291,32570,8.056,0.3348778120152106,0.4821931042779894,-0.2549508551195938,0.9770236583426595
1,butv116_10291,32570,8.064,0.2498733097842652,0.4821931042779894,-0.2549508551195938,0.9770236583426595
1,butv116_10291,32570,8.072,0.011955025585085585,0.4821931042779894,-0.2549508551195938,0.9770236583426595
1,butv116_10291,32570,8.08,0.24007973220949966,0.4821931042779894,-0.2549508551195938,0.9770236583426595
1,butv116_10291,32570,8.088,0.45049829416773657,0.4821931042779894,-0.2549508551195938,0.9770236583426595
1,butv116_10291,32570,8.096,0.2857081110788788,0.4821931042779894,-0.2549508551195938,0.9770236583426595
1,butv116_10291,32570,8.104,0.17197624066159248,0.4821931042779894,-0.2549508551195938,0.9770236583426595
1,butv116_10291,32570,8.112,-0.005645171162202955,0.4821931042779894,-0.2549508551195938,0.9770236583426595
1,butv116_10291,32570,8.12,-0.043292371663288684,0.4821931042779894,-0.2549508551195938,0.9770236583426595
1,butv116_10291,32570,8.128,-0.006297622306982371,0.4821931042779894,-0.2549508551195938,0.9770236583426595
1,butv116_10291,32570,8.136,0.10391660599121698,0.4821931042779894,-0.2549508551195938,0.9770236583426595
1,butv116_10291,32570,8.144,0.06832077321051787,0.4821931042779894,-0.2549508551195938,0.9770236583426595
1,butv116_10291,32570,8.152,0.10535578801915005,0.4821931042779894,-0.2549508551195938,0.9770236583426595
1,butv116_10291,32570,8.16,0.09651522046317343,0.4821931042779894,-0.2549508551195938,0.9770236583426595
1,butv116_10291,32570,8.168,0.12179769849386436,0.4821931042779894,-0.2549508551195938,0.9770236583426595
1,butv116_10291,32570,8.176,0.11816553954117942,0.4821931042779894,-0.2549508551195938,0.9770236583426595
1,butv116_10291,32570,8.184,0.14946362240489744,0.4821931042779894,-0.2549508551195938,0.9770236583426595
1,butv116_10291,32570,8.192,0.14779381188239207,0.4821931042779894,-0.2549508551195938,0.9770236583426595
1,butv116_10291,32570,8.2,0.12818522897535709,0.4821931042779894,-0.2549508551195938,0.9770236583426595
1,butv116_10291,32570,8.208,0.1737762703274124,0.4821931042779894,-0.2549508551195938,0.9770236583426595
1,butv116_10291,32570,8.216,0.19440234959926686,0.4821931042779894,-0.2549508551195938,0.9770236583426595
1,butv116_10291,32570,8.224,0.1962255856665142,0.4821931042779894,-0.2549508551195938,0.9770236583426595
1,butv116_10291,32570,8.232,0.22833293751036665,0.4821931042779894,-0.2549508551195938,0.9770236583426595
1,butv116_10291,32570,8.24,0.24858526347208598,0.4821931042779894,-0.2549508551195938,0.9770236583426595
1,butv116_10291,32570,8.248,0.2661514869825232,0.4821931042779894,-0.2549508551195938,0.9770236583426595
1,butv116_10291,32570,8.256,0.29472250256443694,0.4821931042779894,-0.2549508551195938,0.9770236583426595
1,butv116_10291,32570,8.264,0.3282377281016473,0.4821931042779894,-0.2549508551195938,0.9770236583426595
1,butv116_10291,32570,8.272,0.3659125435376845,0.4821931042779894,-0.2549508551195938,0.9770236583426595
1,butv116_10291,32570,8.28,0.40621860356477973,0.4821931042779894,-0.2549508551195938,0.9770236583426595
1,butv116_10291,32570,8.288,0.4822169212813417,0.4821931042779894,-0.2549508551195938,0.9770236583426595
1,butv116_10291,32570,8.296,0.5368811754140639,0.4821931042779894,-0.2549508551195938,0.9770236583426595
1,butv116_10291,32570,8.304,0.6257814400302031,0.4821931042779894,-0.2549508551195938,0.9770236583426595
1,butv116_10291,32570,8.312,0.6893163376072938,0.4821931042779894,-0.2549508551195938,0.9770236583426595
1,butv116_10291,32570,8.32,0.7038557853322773,0.4821931042779894,-0.2549508551195938,0.9770236583426595
1,butv116_10291,32570,8.328,0.8357701583718975,0.4821931042779894,-0.2549508551195938,0.9770236583426595
1,butv116_10291,32570,8.336,0.8763264329843292,0.4821931042779894,-0.2549508551195938,0.9770236583426595
1,butv116_10291,32570,8.344,0.9416580130154468,0.4821931042779894,-0.2549508551195938,0.9770236583426595
1,butv116_10291,32570,8.352,0.936858139314291,0.4821931042779894,-0.2549508551195938,0.9770236583426595
1,butv116_10291,32570,8.36,0.8668463449023529,0.4821931042779894,-0.2549508551195938,0.9770236583426595
1,butv116_10291,32570,8.368,0.8881246402964014,0.4821931042779894,-0.2549508551195938,0.9770236583426595
1,butv116_10291,32570,8.376,0.7544823777078911,0.4821931042779894,-0.2549508551195938,0.9770236583426595
1,butv116_10291,32570,8.384,0.6578491295150679,0.4821931042779894,-0.2549508551195938,0.9770236583426595
1,butv116_10291,32570,8.392,0.6006556717332311,0.4821931042779894,-0.2549508551195938,0.9770236583426595
1,butv116_10291,32570,8.4,0.4339368784284596,0.4821931042779894,-0.2549508551195938,0.9770236583426595
1,butv116_10291,32570,8.408,0.3857813126400839,0.4821931042779894,-0.2549508551195938,0.9770236583426595
1,butv116_10291,32570,8.416,0.2952365166532659,0.4821931042779894,-0.2549508551195938,0.9770236583426595
1,butv116_10291,32570,8.424,0.21304456865301621,0.4821931042779894,-0.2549508551195938,0.9770236583426595
1,butv116_10291,32570,8.432,0.20435641127418747,0.4821931042779894,-0.2549508551195938,0.9770236583426595
1,butv116_10291,32570,8.44,0.11161403069450075,0.4821931042779894,-0.2549508551195938,0.9770236583426595
1,butv116_10291,32570,8.448,0.13650898843098708,0.4821931042779894,-0.2549508551195938,0.9770236583426595
1,butv116_10291,32570,8.456,0.08865412550624951,0.4821931042779894,-0.2549508551195938,0.9770236583426595
1,butv116_10291,32570,8.464,0.08526059194325758,0.4821931042779894,-0.2549508551195938,0.9770236583426595
1,butv116_10291,32570,8.472,0.10297188697402435,0.4821931042779894,-0.2549508551195938,0.9770236583426595
1,butv116_10291,32570,8.48,0.10014269471985505,0.4821931042779894,-0.2549508551195938,0.9770236583426595
1,butv116_10291,32570,8.488,0.07818270253070682,0.4821931042779894,-0.2549508551195938,0.9770236583426595
1,butv116_10291,32570,8.496,0.09270531616123305,0.4821931042779894,-0.2549508551195938,0.9770236583426595
1,butv116_10291,32570,8.504,0.09485215338200019,0.4821931042779894,-0.2549508551195938,0.9770236583426595
1,butv116_10291,32570,8.512,0.08405864180052623,0.4821931042779894,-0.2549508551195938,0.9770236583426595
1,butv116_10291,32570,8.52,0.0836725640285588,0.4821931042779894,-0.2549508551195938,0.9770236583426595
1,butv116_10291,32570,8.528,0.0850851784382011,0.4821931042779894,-0.2549508551195938,0.9770236583426595
1,butv116_10291,32570,8.536,0.08130200981539468,0.4821931042779894,-0.2549508551195938,0.9770236583426595
1,butv116_10291,32570,8.544,0.08436907118546272,0.4821931042779894,-0.2549508551195938,0.9770236583426595
1,butv116_10291,32570,8.552,0.10173623362970272,0.4821931042779894,-0.2549508551195938,0.9770236583426595
1,butv116_10291,32570,8.56,0.06430694808299867,0.4821931042779894,-0.2549508551195938,0.9770236583426595
1,butv116_10291,32570,8.568,0.10978034684483645,0.4821931042779894,-0.2549508551195938,0.9770236583426595
1,butv116_10291,32570,8.576,0.08355775746506974,0.4821931042779894,-0.2549508551195938,0.9770236583426595
1,butv116_10291,32570,8.584,0.09335028465956548,0.4821931042779894,-0.2549508551195938,0.9770236583426595
1,butv116_10291,32570,8.592,0.0569651436251257,0.4821931042779894,-0.2549508551195938,0.9770236583426595
1,butv116_10291,32570,8.6,0.0520451274287101,0.4821931042779894,-0.2549508551195938,0.9770236583426595
1,butv116_10291,32570,8.608,0.07390611427489462,0.4821931042779894,-0.2549508551195938,0.9770236583426595
1,butv116_10291,32570,8.616,0.045260885825652,0.4821931042779894,-0.2549508551195938,0.9770236583426595
1,butv116_10291,32570,8.624,0.02910326602286022,0.4821931042779894,-0.2549508551195938,0.9770236583426595
1,butv116_10291,32570,8.632,0.06169309078667336,0.4821931042779894,-0.2549508551195938,0.9770236583426595
1,butv116_10291,32570,8.64,0.053468347177809794,0.4821931042779894,-0.2549508551195938,0.9770236583426595
1,butv116_10291,32570,8.648,0.03966787698530572,0.4821931042779894,-0.2549508551195938,0.9770236583426595
1,butv116_10291,32570,8.656,0.020392814322804976,0.4821931042779894,-0.2549508551195938,0.9770236583426595
1,butv116_10291,32570,8.664,0.009874503247335336,0.4821931042779894,-0.2549508551195938,0.9770236583426595
1,butv116_10291,32570,8.672,0.03781045104027639,0.4821931042779894,-0.2549508551195938,0.9770236583426595
1,butv116_10291,32570,8.68,0.028523387839213467,0.4821931042779894,-0.2549508551195938,0.9770236583426595
1,butv116_10291,32570,8.688,0.015764152605626306,0.4821931042779894,-0.2549508551195938,0.9770236583426595
1,butv116_10291,32570,8.696,0.02458762347207817,0.4821931042779894,-0.2549508551195938,0.9770236583426595
1,butv116_10291,32570,8.704,-0.017786659815124867,0.4821931042779894,-0.2549508551195938,0.9770236583426595
1,butv116_10291,32570,8.712,0.021356170587251408,0.4821931042779894,-0.2549508551195938,0.9770236583426595
1,butv116_10291,32570,8.72,-0.017474616345840455,0.4821931042779894,-0.2549508551195938,0.9770236583426595
1,butv116_10291,32570,8.728,-0.011788918449219523,0.4821931042779894,-0.2549508551195938,0.9770236583426595
1,butv116_10291,32570,8.736,-0.0074435898072840855,0.4821931042779894,-0.2549508551195938,0.9770236583426595
1,butv116_10291,32570,8.744,0.0033559264480655495,0.4821931042779894,-0.2549508551195938,0.9770236583426595
1,butv116_10291,32570,8.752,0.003909829165298611,0.4821931042779894,-0.2549508551195938,0.9770236583426595
1,butv116_10291,32570,8.76,-0.009149160526074751,0.4821931042779894,-0.2549508551195938,0.9770236583426595
1,butv116_10291,32570,8.768,0.03699169712630566,0.4821931042779894,-0.2549508551195938,0.9770236583426595
1,butv116_10291,32570,8.776,0.14814231405084122,0.4821931042779894,-0.2549508551195938,0.9770236583426595
1,butv116_10291,32570,8.784,0.1576424994086464,0.4821931042779894,-0.2549508551195938,0.9770236583426595
1,butv116_10291,32570,8.792,0.20436240544426046,0.4821931042779894,-0.2549508551195938,0.9770236583426595
1,butv116_10291,32570,8.8,0.2150903873019692,0.4821931042779894,-0.2549508551195938,0.9770236583426595
1,butv116_10291,32570,8.808,0.31325423561887367,0.4821931042779894,-0.2549508551195938,0.9770236583426595
1,butv116_10291,32570,8.816,0.30416853031553126,0.4821931042779894,-0.2549508551195938,0.9770236583426595
1,butv116_10291,32570,8.824,0.1614286581139542,0.4821931042779894,-0.2549508551195938,0.9770236583426595
1,butv116_10291,32570,8.832,0.16570733312523575,0.4821931042779894,-0.2549508551195938,0.9770236583426595
1,butv116_10291,32570,8.84,0.13382662533346545,0.4821931042779894,-0.2549508551195938,0.9770236583426595
1,butv116_10291,32570,8.848,0.09477885784677359,0.4821931042779894,-0.2549508551195938,0.9770236583426595
1,butv116_10291,32570,8.856,0.03620725913574927,0.4821931042779894,-0.2549508551195938,0.9770236583426595
1,butv116_10291,32570,8.864,-0.05882675008362883,0.4821931042779894,-0.2549508551195938,0.9770236583426595
1,butv116_10291,32570,8.872,-0.12001130976648156,0.4821931042779894,-0.2549508551195938,0.9770236583426595
1,butv116_10291,32570,8.88,-0.1374992729442836,0.4821931042779894,-0.2549508551195938,0.9770236583426595
1,butv116_10291,32570,8.888,-0.13551889998867425,0.4821931042779894,-0.2549508551195938,0.9770236583426595
1,butv116_10291,32570,8.896,-0.14393956052546078,0.4821931042779894,-0.2549508551195938,0.9770236583426595
1,butv116_10291,32570,8.904,-0.13021158057664312,0.4821931042779894,-0.2549508551195938,0.9770236583426595
1,butv116_10291,32570,8.912,-0.10357703205506112,0.4821931042779894,-0.2549508551195938,0.9770236583426595
1,butv116_10291,32570,8.92,-0.16088834250316944,0.4821931042779894,-0.2549508551195938,0.9770236583426595
1,butv116_10291,32570,8.928,-0.11646433665367734,0.4821931042779894,-0.2549508551195938,0.9770236583426595
1,butv116_10291,32570,8.936,0.11955278376603849,0.4821931042779894,-0.2549508551195938,0.9770236583426595
1,butv116_10291,32570,8.944,0.794230055583561,0.4821931042779894,-0.2549508551195938,0.9770236583426595
1,butv116_10291,32570,8.952,1.7005360780966752,0.4821931042779894,-0.2549508551195938,0.9770236583426595
1,butv116_10291,32570,8.96,2.342618915731634,0.4821931042779894,-0.2549508551195938,0.9770236583426595
1,butv116_10291,32570,8.968,1.3571215595324706,0.4821931042779894,-0.2549508551195938,0.9770236583426595
1,butv116_10291,32570,8.976,0.029001396643027515,0.4821931042779894,-0.2549508551195938,0.9770236583426595
1,butv116_10291,32570,8.984,0.08561253935899167,0.4821931042779894,-0.2549508551195938,0.9770236583426595
1,butv116_10291,32570,8.992,-0.15091776885040759,0.4821931042779894,-0.2549508551195938,0.9770236583426595
1,butv116_10291,32570,9.0,0.130749515325483,0.4821931042779894,-0.2549508551195938,0.9770236583426595
1,butv116_10291,32570,9.008,0.28846982690451617,0.4821931042779894,-0.2549508551195938,0.9770236583426595
1,butv116_10291,32570,9.016,0.1528694874322568,0.4821931042779894,-0.2549508551195938,0.9770236583426595
1,butv116_10291,32570,9.024,-0.07309800771559209,0.4821931042779894,-0.2549508551195938,0.9770236583426595
1,butv116_10291,32570,9.032,-0.1590763805174846,0.4821931042779894,-0.2549508551195938,0.9770236583426595
1,butv116_10291,32570,9.04,-0.146419298266403,0.4821931042779894,-0.2549508551195938,0.9770236583426595
1,butv116_10291,32570,9.048,-0.22512544029822645,0.4821931042779894,-0.2549508551195938,0.9770236583426595
1,butv116_10291,32570,9.056,-0.06953266695313665,0.4821931042779894,-0.2549508551195938,0.9770236583426595
1,butv116_10291,32570,9.064,-0.10450009223109048,0.4821931042779894,-0.2549508551195938,0.9770236583426595
1,butv116_10291,32570,9.072,-0.10066956546318638,0.4821931042779894,-0.2549508551195938,0.9770236583426595
1,butv116_10291,32570,9.08,-0.08287449910463555,0.4821931042779894,-0.2549508551195938,0.9770236583426595
1,butv116_10291,32570,9.088,-0.12446191102032385,0.4821931042779894,-0.2549508551195938,0.9770236583426595
