record_id,orig_record_id,source_record_id,split,quality_record,y,generated,candidate_type,I_rms,I_ptp,I_diff95,I_q10,I_q50,I_q90,I_base_std,I_high_rms,II_rms,II_ptp,II_diff95,II_q10,II_q50,II_q90,II_base_std,II_high_rms,III_rms,III_ptp,III_diff95,III_q10,III_q50,III_q90,III_base_std,III_high_rms,AVR_rms,AVR_ptp,AVR_diff95,AVR_q10,AVR_q50,AVR_q90,AVR_base_std,AVR_high_rms,AVL_rms,AVL_ptp,AVL_diff95,AVL_q10,AVL_q50,AVL_q90,AVL_base_std,AVL_high_rms,AVF_rms,AVF_ptp,AVF_diff95,AVF_q10,AVF_q50,AVF_q90,AVF_base_std,AVF_high_rms,V1_rms,V1_ptp,V1_diff95,V1_q10,V1_q50,V1_q90,V1_base_std,V1_high_rms,V2_rms,V2_ptp,V2_diff95,V2_q10,V2_q50,V2_q90,V2_base_std,V2_high_rms,V3_rms,V3_ptp,V3_diff95,V3_q10,V3_q50,V3_q90,V3_base_std,V3_high_rms,V4_rms,V4_ptp,V4_diff95,V4_q10,V4_q50,V4_q90,V4_base_std,V4_high_rms,V5_rms,V5_ptp,V5_diff95,V5_q10,V5_q50,V5_q90,V5_base_std,V5_high_rms,V6_rms,V6_ptp,V6_diff95,V6_q10,V6_q50,V6_q90,V6_base_std,V6_high_rms,median_rms,median_ptp,median_diff95,median_base_std,median_high_rms,lead_corr_mean,amp_entropy,group,PC1,PC2
r00000,1002603,1002603,train,unacceptable,0,0,original_seta,79.9891586303711,0.0,0.0,-80.0000228881836,-80.0000228881836,-80.0000228881836,9.550880432128906,10.341711044311523,79.9891586303711,0.0,0.0,-80.0000228881836,-80.0000228881836,-80.0000228881836,9.550880432128906,10.341711044311523,0.0,0.0,0.0,0.0,0.0,0.0,0.0,0.0,79.9891586303711,0.0,0.0,80.0000228881836,80.0000228881836,80.0000228881836,9.550880432128906,10.341711044311523,39.99457931518555,0.0,0.0,-40.0000114440918,-40.0000114440918,-40.0000114440918,4.775440216064453,5.170855522155762,39.99457931518555,0.0,0.0,-40.0000114440918,-40.0000114440918,-40.0000114440918,4.775440216064453,5.170855522155762,79.9891586303711,0.0,0.0,-80.0000228881836,-80.0000228881836,-80.0000228881836,9.550880432128906,10.341711044311523,79.9891586303711,0.0,0.0,-80.0000228881836,-80.0000228881836,-80.0000228881836,9.550880432128906,10.341711044311523,79.9891586303711,0.0,0.0,-80.0000228881836,-80.0000228881836,-80.0000228881836,9.550880432128906,10.341711044311523,79.9891586303711,0.0,0.0,-80.0000228881836,-80.0000228881836,-80.0000228881836,9.550880432128906,10.341711044311523,79.9891586303711,0.0,0.0,-80.0000228881836,-80.0000228881836,-80.0000228881836,9.550880432128906,10.341711044311523,79.9891586303711,0.0,0.0,-80.0000228881836,-80.0000228881836,-80.0000228881836,9.550880432128906,10.341711044311523,79.9891586303711,0.0,0.0,9.550880432128906,10.341711044311523,0.6368899345397949,1.0177469400908588,original unacceptable,9.493092946138805,-2.8898493494107376
r00002,1003574,1003574,train,unacceptable,0,0,original_seta,0.4528293907642364,2.283545970916748,0.2408725470304489,-0.4925183057785034,-0.0671422183513641,0.4324196279048919,0.1456898152828216,0.4198301434516907,0.8851204514503479,6.10712194442749,0.1683551520109176,-0.6316848397254944,-0.0332613326609134,0.7519485950469971,0.1892888396978378,0.911920130252838,0.943179488182068,6.927145957946777,0.2269474267959594,-0.7250130772590637,0.0426047407090663,0.4698252379894256,0.1852314174175262,0.9884349703788756,0.5206661820411682,3.1403212547302246,0.1678414642810821,-0.4867960512638092,0.0465638116002082,0.589807391166687,0.1409128606319427,0.5089225769042969,0.5930132865905762,4.047351360321045,0.2232024371623993,-0.443215012550354,-0.0434445366263389,0.5715386867523193,0.1369812935590744,0.6075102686882019,0.8860947489738464,6.488085746765137,0.1685613691806793,-0.5833755731582642,-0.0233504865318536,0.6011497378349304,0.1724967509508133,0.9274446964263916,0.9556396007537842,5.51884126663208,0.7660219073295593,-0.8334397077560425,-0.1770325899124145,1.2139426469802856,0.2706588804721832,0.8904837369918823,0.5467562675476074,2.770712614059448,0.2910783886909485,-0.5803947448730469,-0.1026355326175689,0.7104936838150024,0.165139839053154,0.5016201138496399,78.24779510498047,82.00806427001953,0.268939733505249,-80.33930206298828,-80.05998992919922,-80.0000228881836,10.509483337402344,18.397003173828125,0.7983784079551697,5.171224594116211,0.5018783211708069,-0.7487916350364685,-0.116811990737915,0.6935358643531799,0.2179370671510696,0.753189742565155,0.8211817741394043,5.45089054107666,0.6098148226737976,-0.6698725819587708,-0.0523586198687553,0.7015539407730103,0.2008212059736251,0.7855902314186096,0.6266078948974609,4.039264678955078,0.4844387769699096,-0.5543667078018188,-0.0347954183816909,0.5958608388900757,0.1701682806015014,0.5948229432106018,0.8097801208496094,5.311057567596436,0.2549061477184295,0.1788640916347503,0.7693899869918823,0.094156377017498,0.5976963187274852,original unacceptable,-4.541156114534248,1.1479938090457544
r00003,1004502,1004502,train,unacceptable,0,0,original_seta,0.1461517214775085,0.8411076068878174,0.1015940234065055,-0.1556777060031891,0.0066001852974295,0.1797955781221389,0.0092388559132814,0.1471015363931656,0.2415560483932495,1.2825310230255127,0.1462434530258178,-0.3702006638050079,0.0467765554785728,0.2309193611145019,0.0137844765558838,0.241553783416748,0.261942595243454,1.4213635921478271,0.1840267330408096,-0.3886577486991882,0.0535516068339347,0.2076604515314102,0.0191847868263721,0.2628936171531677,0.1498863697052002,0.776146650314331,0.0938256308436393,-0.1727810204029083,-0.0237658414989709,0.1811119019985199,0.0067169717513024,0.1499369740486145,0.1747176051139831,0.953885555267334,0.1256588399410247,-0.1525951921939849,-0.0251500494778156,0.2623032927513122,0.0134474504739046,0.175843060016632,0.2412014752626419,1.3027255535125732,0.1590736508369445,-0.3593362271785736,0.0526072345674037,0.1982643157243728,0.0161028187721967,0.24158476293087,0.1895918995141983,0.9967694282531738,0.1374692469835281,-0.1933735609054565,-0.0066548334434628,0.247818723320961,0.0123670119792222,0.1888022720813751,1.1603566408157349,7.702688217163086,0.531132161617279,-0.9920223355293274,0.0276994667947292,1.0815991163253784,0.1062831282615661,1.168176293373108,0.6688150763511658,3.8976526260375977,0.5255125164985657,-0.6847361326217651,0.0509489029645919,0.6673005223274231,0.0327253900468349,0.6672108173370361,0.677340567111969,3.6321074962615967,0.581896960735321,-0.8214325308799744,0.0296905115246772,0.6177436113357544,0.0284435730427503,0.6793164014816284,0.5296775698661804,2.7840464115142822,0.3996010720729828,-0.6487001180648804,0.0866471454501152,0.4892591536045074,0.0287168584764003,0.5303112864494324,0.3983907103538513,2.0891737937927246,0.2646617591381073,-0.4721662104129791,0.0614348202943801,0.4059319496154785,0.0225596912205219,0.3984590172767639,0.2517493367195129,1.3620445728302002,0.1715501844882965,0.0176438018679618,0.2522391974925995,0.0828961059451103,1.6206140297629674,original unacceptable,-6.432433761888924,-0.08980058343727437
r00014,1028102,1028102,train,unacceptable,0,0,original_seta,0.0474025383591651,0.2954211235046386,0.0964971706271171,-0.0365359485149383,0.0024495576508343,0.0503742061555385,0.0021939014550298,0.0467586144804954,0.1312081664800644,0.7542474269866943,0.1110708564519882,-0.0767352730035781,-0.0265547707676887,0.0547864325344562,0.0081649320200085,0.1295274943113327,0.1240637078881263,0.6806445717811584,0.1304460763931274,-0.0803632065653801,-0.0288860276341438,0.0366025753319263,0.0081131849437952,0.1226193904876709,0.0760551244020462,0.4778454899787903,0.0931409671902656,-0.048721857368946,0.0110392030328512,0.0446848683059215,0.0043456139974296,0.0750028863549232,0.0675902515649795,0.409704327583313,0.1098370775580406,-0.0281711742281913,0.0173630118370056,0.0556645840406417,0.0043650954030454,0.0668158531188964,0.1254758983850479,0.6805605888366699,0.0958490073680877,-0.0738376677036285,-0.0271558389067649,0.0403925105929374,0.008091521449387,0.1239413693547248,0.1855272948741912,1.114918231964111,0.210063099861145,-0.0401375442743301,0.0387359708547592,0.1331373006105423,0.0104735782369971,0.1815341711044311,0.320840060710907,1.8475561141967771,0.3069404661655426,-0.0086060706526041,0.0644375756382942,0.2111542522907257,0.0171356163918972,0.3150126338005066,0.2936210930347442,1.7367777824401855,0.3302468955516815,-0.0014344808878377,0.0626493245363235,0.1929658651351928,0.0150995170697569,0.2886779904365539,0.1106565296649932,0.7907798290252686,0.1342250555753708,-0.0158713795244693,0.0279568806290626,0.0613454170525074,0.004717081785202,0.1095538213849067,0.0946389287710189,0.6362609267234802,0.1313326954841613,-0.0860991105437278,-0.0187436286360025,0.0331878624856472,0.019691003486514,0.0907280147075653,79.9891586303711,0.0,0.0,-80.0000228881836,-80.0000228881836,-80.0000228881836,9.550880432128906,10.341711044311523,0.1247698068618774,0.6806025505065918,0.1207584664225578,0.0081390589475631,0.1232803761959075,-0.0182974785566329,0.3254741695879573,original unacceptable,-5.234990925123655,-0.9548402216776103
r00018,1030400,1030400,train,unacceptable,0,0,original_seta,79.9891586303711,0.0,0.0,-80.0000228881836,-80.0000228881836,-80.0000228881836,9.550880432128906,10.341711044311523,79.9891586303711,0.0,0.0,-80.0000228881836,-80.0000228881836,-80.0000228881836,9.550880432128906,10.341711044311523,0.0,0.0,0.0,0.0,0.0,0.0,0.0,0.0,79.9891586303711,0.0,0.0,80.0000228881836,80.0000228881836,80.0000228881836,9.550880432128906,10.341711044311523,39.99457931518555,0.0,0.0,-40.0000114440918,-40.0000114440918,-40.0000114440918,4.775440216064453,5.170855522155762,39.99457931518555,0.0,0.0,-40.0000114440918,-40.0000114440918,-40.0000114440918,4.775440216064453,5.170855522155762,79.9891586303711,0.0,0.0,-80.0000228881836,-80.0000228881836,-80.0000228881836,9.550880432128906,10.341711044311523,79.9891586303711,0.0,0.0,-80.0000228881836,-80.0000228881836,-80.0000228881836,9.550880432128906,10.341711044311523,79.9891586303711,0.0,0.0,-80.0000228881836,-80.0000228881836,-80.0000228881836,9.550880432128906,10.341711044311523,79.9891586303711,0.0,0.0,-80.0000228881836,-80.0000228881836,-80.0000228881836,9.550880432128906,10.341711044311523,79.9891586303711,0.0,0.0,-80.0000228881836,-80.0000228881836,-80.0000228881836,9.550880432128906,10.341711044311523,79.9891586303711,0.0,0.0,-80.0000228881836,-80.0000228881836,-80.0000228881836,9.550880432128906,10.341711044311523,79.9891586303711,0.0,0.0,9.550880432128906,10.341711044311523,0.6368899345397949,1.0177469400908588,original unacceptable,9.493092946138832,-2.889849349410723
r00019,1030943,1030943,train,unacceptable,0,0,original_seta,0.0745588093996048,0.4217225909233093,0.0562283135950565,-0.0725093185901641,0.0116769466549158,0.0801469460129737,0.0110975466668605,0.0727270245552063,79.13483428955078,154.7473907470703,2.2097768783569336,-84.66304779052734,-79.98001098632812,-79.98001098632812,12.26927661895752,25.22021102905273,79.14218139648438,154.8211669921875,2.225146770477295,-84.7035140991211,-80.00588989257812,-79.8522720336914,12.268003463745115,25.217512130737305,39.56238555908203,77.33415985107422,1.085402488708496,39.93119812011719,39.99908447265625,42.35093688964844,6.135176658630371,12.61117935180664,39.575286865234375,77.44782257080078,1.0835785865783691,39.862281799316406,40.01476287841797,42.33606719970703,6.133299350738525,12.607758522033691,79.13834381103516,154.7873077392578,2.2289249897003174,-84.68365478515625,-79.99378967285156,-79.9129867553711,12.268625259399414,25.218873977661133,77.14165496826172,84.38025665283203,0.7874679565429688,-80.0000228881836,-80.0000228881836,-76.76520538330078,11.553263664245604,17.929067611694336,77.13905334472656,84.37762451171875,0.7930428981781006,-80.0000228881836,-80.0000228881836,-76.75726318359375,11.55490779876709,17.93336296081543,77.03800964355469,82.19337463378906,0.7660959959030151,-80.0000228881836,-79.98001098632812,-76.2611083984375,11.512762069702148,17.562501907348633,76.95037841796875,80.43409729003906,0.7408683896064758,-80.01998901367188,-79.98001098632812,-75.47216796875,11.4685697555542,17.179750442504883,76.92755889892578,80.50616455078125,0.7258557081222534,-80.01998901367188,-79.93998718261719,-75.5278549194336,11.468069076538086,17.210487365722656,76.94622039794922,80.5169448852539,0.7422971129417419,-80.0000228881836,-79.98001098632812,-75.48345184326172,11.474424362182615,17.19146156311035,76.99419403076172,81.35516357421875,0.7902554273605347,11.493593215942385,17.386493682861328,0.2794214487075805,1.5874608000042096,original unacceptable,11.44814146582153,19.52132818197214
r00023,1038105,1038105,train,unacceptable,0,0,original_seta,79.9891586303711,0.0,0.0,-80.0000228881836,-80.0000228881836,-80.0000228881836,9.550880432128906,10.341711044311523,79.9891586303711,0.0,0.0,-80.0000228881836,-80.0000228881836,-80.0000228881836,9.550880432128906,10.341711044311523,0.0,0.0,0.0,0.0,0.0,0.0,0.0,0.0,79.9891586303711,0.0,0.0,80.0000228881836,80.0000228881836,80.0000228881836,9.550880432128906,10.341711044311523,39.99457931518555,0.0,0.0,-40.0000114440918,-40.0000114440918,-40.0000114440918,4.775440216064453,5.170855522155762,39.99457931518555,0.0,0.0,-40.0000114440918,-40.0000114440918,-40.0000114440918,4.775440216064453,5.170855522155762,79.9891586303711,0.0,0.0,-80.0000228881836,-80.0000228881836,-80.0000228881836,9.550880432128906,10.341711044311523,79.9891586303711,0.0,0.0,-80.0000228881836,-80.0000228881836,-80.0000228881836,9.550880432128906,10.341711044311523,79.9891586303711,0.0,0.0,-80.0000228881836,-80.0000228881836,-80.0000228881836,9.550880432128906,10.341711044311523,79.9891586303711,0.0,0.0,-80.0000228881836,-80.0000228881836,-80.0000228881836,9.550880432128906,10.341711044311523,79.9891586303711,0.0,0.0,-80.0000228881836,-80.0000228881836,-80.0000228881836,9.550880432128906,10.341711044311523,79.9891586303711,0.0,0.0,-80.0000228881836,-80.0000228881836,-80.0000228881836,9.550880432128906,10.341711044311523,79.9891586303711,0.0,0.0,9.550880432128906,10.341711044311523,0.6368899345397949,1.0177469400908588,original unacceptable,9.493092946138832,-2.889849349410723
r00027,1050325,1050325,train,unacceptable,0,0,original_seta,0.1014675125479698,0.6903058290481567,0.0935218334197998,-0.0732984021306037,-0.0015360834077,0.1123755499720573,0.0286028981208801,0.0944637358188629,0.0698743909597396,0.3889485597610473,0.0743791386485099,-0.0592352002859115,0.0098919458687305,0.0807202979922294,0.0082467617467045,0.0686222985386848,0.0699576139450073,0.4676406979560852,0.0801606327295303,-0.0757270082831382,0.0083632078021764,0.0493883155286312,0.0265016946941614,0.060811560600996,0.0789596885442733,0.4901918172836303,0.0762188881635665,-0.0844287425279617,-0.0066109136678278,0.0611177012324333,0.0160921104252338,0.0760086774826049,0.0794169828295707,0.5397655963897705,0.0845630392432212,-0.0544609241187572,-0.0063534369692206,0.0904708355665206,0.0272066202014684,0.0712390542030334,0.0478959567844867,0.2576110064983368,0.0702763944864273,-0.0529303476214408,0.0016275774687528,0.0547322630882263,0.0136293964460492,0.0441207252442836,0.067293494939804,0.4633375406265259,0.0775064527988433,-0.0441852286458015,0.0134836696088314,0.0691518560051918,0.0116838589310646,0.0643825158476829,0.0865648835897445,0.5753547549247742,0.1182611957192421,-0.0298449005931615,0.0253172405064106,0.0697660893201828,0.0095426347106695,0.0842930972576141,79.9891586303711,0.0,0.0,-80.0000228881836,-80.0000228881836,-80.0000228881836,9.550880432128906,10.341711044311523,0.1806153208017349,1.09830641746521,0.1817083954811096,-0.1528870314359665,0.0283434502780437,0.163588136434555,0.0294858552515506,0.1743232607841491,0.1582548469305038,1.1253076791763306,0.1605938076972961,-0.0815096348524093,0.0068636564537882,0.1219796240329742,0.0112492553889751,0.1555958241224289,46.59284973144531,82.95790100097656,0.2067581266164779,-80.0609130859375,-0.0656012147665023,0.1042823940515518,32.51081848144531,12.8002347946167,0.0829909294843673,0.5149787068367004,0.0823618322610855,0.0212969034910202,0.0801508873701095,0.0187612809240818,0.4801897164385986,original unacceptable,-4.06534125533056,-0.4983427303945482
r00028,1052879,1052879,train,unacceptable,0,0,original_seta,0.0905714556574821,0.592268168926239,0.0538867749273777,-0.0764621496200561,-0.0383331999182701,0.0548176653683185,0.010116608813405,0.087908074259758,0.1275707781314849,0.8378119468688965,0.0765831917524337,-0.0911946818232536,-0.0477329716086387,0.0991068482398986,0.0125902015715837,0.125011146068573,0.0635156333446502,0.3943256735801697,0.0602958872914314,-0.034454807639122,-0.0049364357255399,0.0631589069962501,0.004540242254734,0.0625360161066055,0.105263777077198,0.6638462543487549,0.0589911341667175,-0.073476493358612,0.0424741581082344,0.0800090357661247,0.0109968725591897,0.102814681828022,0.045094359666109,0.3187310397624969,0.0372290126979351,-0.0408768542110919,-0.0137043520808219,0.0142656937241554,0.0045845233835279,0.0436205901205539,0.0895204469561576,0.647431492805481,0.0601578988134861,-0.0588852725923061,-0.0247523821890354,0.0751111507415771,0.0077896299771964,0.0880801826715469,4.850251197814941,24.186771392822266,0.6572447419166565,-0.952601194381714,0.0248333998024463,0.0587837696075439,1.028457760810852,4.667938709259033,0.0602359101176261,0.4268966913223266,0.0534092113375663,-0.0285010188817977,0.0168274268507957,0.043319322168827,0.0051211318932473,0.0590507872402668,0.1138124912977218,0.8750803470611572,0.1219296604394912,-0.0564701743423938,-0.0101488903164863,0.1266469657421112,0.0064484411850571,0.1125472411513328,0.2269411832094192,1.537764549255371,0.201657086610794,-0.0927488803863525,-0.0494005307555198,0.1209231093525886,0.0082104280591011,0.2244463413953781,0.2071766406297683,1.3767191171646118,0.1376852840185165,-0.0824216157197952,-0.045896079391241,0.1128055676817894,0.0078822923824191,0.2046215832233429,0.1598797142505645,1.0226900577545166,0.0884293541312217,-0.069524772465229,-0.0384431518614292,0.108452521264553,0.0053662676364183,0.1579439342021942,0.1095381379127502,0.7508291006088257,0.0684395432472229,0.0078359609469771,0.1076809614896774,0.1874220073223114,0.1533228936727257,original unacceptable,-6.261706309833849,-1.0941056371992421
r00032,1063069,1063069,train,unacceptable,0,0,original_seta,0.0970340147614479,0.6582033634185791,0.0836930200457573,-0.0764941051602363,0.006901690736413,0.0814754739403724,0.0077752312645316,0.0941293686628341,0.1052070036530494,0.693973183631897,0.0723419114947319,-0.0970025733113288,0.0191459245979785,0.0957502052187919,0.0089450925588607,0.1031930297613143,0.1747299879789352,1.295366883277893,0.0990264266729354,-0.0990132242441177,-0.000544138776604,0.1504076570272445,0.009944480843842,0.171132743358612,0.0502206794917583,0.2649608850479126,0.0518190078437328,-0.0680508613586425,-0.0081614749506115,0.0520961321890354,0.006677383556962,0.04849848523736,0.1315403431653976,0.9825574159622192,0.0900685787200927,-0.1155870035290718,0.0090833585709333,0.070137545466423,0.0077446498908102,0.128462940454483,0.1361505687236786,1.0005451440811155,0.073249839246273,-0.0965914577245712,0.0112673062831163,0.1197695359587669,0.0086019886657595,0.1335722804069519,0.0548900477588176,0.3023146688938141,0.066159501671791,-0.0589466989040374,0.0161874610930681,0.0654369816184043,0.0051216292195022,0.0542419888079166,0.0860902369022369,0.3880729079246521,0.0758325457572937,-0.1189600527286529,0.0374498032033443,0.0747029334306716,0.0056496397592127,0.0842163637280464,0.1892032325267791,1.2746641635894775,0.1517964601516723,-0.1213276833295822,0.0607615336775779,0.1073705106973648,0.0097455326467752,0.1887273341417312,0.1224259883165359,0.781578540802002,0.0943543612957,-0.1227091699838638,0.0415317863225936,0.0965955778956413,0.0081089120358228,0.1214715912938118,0.0700267180800437,0.3766231834888458,0.0647323131561279,-0.0805841758847236,0.0222783107310533,0.0769268423318862,0.0064306450076401,0.068589374423027,0.3105734884738922,2.177288293838501,0.099870778620243,-0.2314427495002746,0.008577917702496,0.2570929527282715,0.034149806946516,0.3070491552352905,0.113816499710083,0.7377758622169495,0.0797627866268158,0.0079420711845159,0.1123323142528534,0.0652204751968383,1.8424820964058608,original unacceptable,-6.420010990007662,-0.9712095241318547
r00038,1068152,1068152,train,unacceptable,0,0,original_seta,0.152608647942543,0.9173482656478882,0.14658023416996,-0.1631267219781875,-0.0037286148872226,0.1577989608049392,0.0054145231842994,0.1535721719264984,0.0652075186371803,0.3252809047698974,0.053527608513832,-0.0564192868769168,-0.0099383303895592,0.0970550999045372,0.0047263773158192,0.0632271319627761,0.1893880665302276,1.1114310026168823,0.2410306930541992,-0.131215751171112,-0.0223749168217182,0.236202597618103,0.0083952639251947,0.1901472061872482,0.0685412883758544,0.4034708440303802,0.0769946500658989,-0.093384563922882,0.008233499713242,0.0602930970489978,0.0028222256805747,0.0681602507829666,0.1692434698343277,1.0123870372772217,0.1868501156568527,-0.1994191706180572,0.0092105269432067,0.1442015618085861,0.0067021581344306,0.1702741682529449,0.119974285364151,0.6982355117797852,0.1350202858448028,-0.0737624242901802,-0.0219198167324066,0.1610582917928695,0.0062958793714642,0.1197423562407493,0.0821602568030357,0.4263530373573303,0.0813092514872551,-0.1113427206873893,0.0103652970865368,0.0921580865979194,0.0041625215671956,0.0824096649885177,0.1277952641248703,0.7839980721473694,0.1211323365569114,-0.1108232215046882,0.0041682757437229,0.1124878600239753,0.0188909750431776,0.1252387166023254,0.061178658157587,0.3674907684326172,0.0836105197668075,-0.0634032860398292,0.0059241475537419,0.0801064595580101,0.0029069494921714,0.0611462220549583,0.1102007403969764,0.807914674282074,0.1500708907842636,-0.0590091422200202,-0.0103523666039109,0.052232164889574,0.0028658746741712,0.1103374809026718,0.0690116584300994,0.549354076385498,0.09394121915102,-0.0435804836452007,0.0011585900792852,0.0546269379556179,0.0032920055091381,0.0680744871497154,0.0,0.0,0.0,0.0,0.0,0.0,0.0,0.0,0.0961804986000061,0.6237947940826416,0.1075367778539657,0.0044444492086768,0.0963735729455947,0.0275370497256517,2.1854400660033093,original unacceptable,-6.446016815749072,-0.7995310965680545
r00046,1076589,1076589,train,unacceptable,0,0,original_seta,79.9891586303711,0.0,0.0,-80.0000228881836,-80.0000228881836,-80.0000228881836,9.550880432128906,10.341711044311523,79.9891586303711,0.0,0.0,-80.0000228881836,-80.0000228881836,-80.0000228881836,9.550880432128906,10.341711044311523,0.0,0.0,0.0,0.0,0.0,0.0,0.0,0.0,79.9891586303711,0.0,0.0,80.0000228881836,80.0000228881836,80.0000228881836,9.550880432128906,10.341711044311523,39.99457931518555,0.0,0.0,-40.0000114440918,-40.0000114440918,-40.0000114440918,4.775440216064453,5.170855522155762,39.99457931518555,0.0,0.0,-40.0000114440918,-40.0000114440918,-40.0000114440918,4.775440216064453,5.170855522155762,79.9891586303711,0.0,0.0,-80.0000228881836,-80.0000228881836,-80.0000228881836,9.550880432128906,10.341711044311523,79.9891586303711,0.0,0.0,-80.0000228881836,-80.0000228881836,-80.0000228881836,9.550880432128906,10.341711044311523,79.9891586303711,0.0,0.0,-80.0000228881836,-80.0000228881836,-80.0000228881836,9.550880432128906,10.341711044311523,79.9891586303711,0.0,0.0,-80.0000228881836,-80.0000228881836,-80.0000228881836,9.550880432128906,10.341711044311523,79.9891586303711,0.0,0.0,-80.0000228881836,-80.0000228881836,-80.0000228881836,9.550880432128906,10.341711044311523,79.9891586303711,0.0,0.0,-80.0000228881836,-80.0000228881836,-80.0000228881836,9.550880432128906,10.341711044311523,79.9891586303711,0.0,0.0,9.550880432128906,10.341711044311523,0.6368899345397949,1.0177469400908588,original unacceptable,9.493092946138832,-2.889849349410723
r00047,1079854,1079854,train,unacceptable,0,0,original_seta,79.9891586303711,0.0,0.0,-80.0000228881836,-80.0000228881836,-80.0000228881836,9.550880432128906,10.341711044311523,79.9891586303711,0.0,0.0,-80.0000228881836,-80.0000228881836,-80.0000228881836,9.550880432128906,10.341711044311523,0.0,0.0,0.0,0.0,0.0,0.0,0.0,0.0,79.9891586303711,0.0,0.0,80.0000228881836,80.0000228881836,80.0000228881836,9.550880432128906,10.341711044311523,39.99457931518555,0.0,0.0,-40.0000114440918,-40.0000114440918,-40.0000114440918,4.775440216064453,5.170855522155762,39.99457931518555,0.0,0.0,-40.0000114440918,-40.0000114440918,-40.0000114440918,4.775440216064453,5.170855522155762,79.9891586303711,0.0,0.0,-80.0000228881836,-80.0000228881836,-80.0000228881836,9.550880432128906,10.341711044311523,79.9891586303711,0.0,0.0,-80.0000228881836,-80.0000228881836,-80.0000228881836,9.550880432128906,10.341711044311523,79.9891586303711,0.0,0.0,-80.0000228881836,-80.0000228881836,-80.0000228881836,9.550880432128906,10.341711044311523,79.9891586303711,0.0,0.0,-80.0000228881836,-80.0000228881836,-80.0000228881836,9.550880432128906,10.341711044311523,79.9891586303711,0.0,0.0,-80.0000228881836,-80.0000228881836,-80.0000228881836,9.550880432128906,10.341711044311523,79.9891586303711,0.0,0.0,-80.0000228881836,-80.0000228881836,-80.0000228881836,9.550880432128906,10.341711044311523,79.9891586303711,0.0,0.0,9.550880432128906,10.341711044311523,0.6368899345397949,1.0177469400908588,original unacceptable,9.493092946138832,-2.889849349410723
r00051,1086219,1086219,train,unacceptable,0,0,original_seta,0.169656291604042,1.1319351196289062,0.1191543266177177,-0.0615057945251464,-0.0050033349543809,0.2123038470745086,0.0318003930151462,0.1656522750854492,0.1036042869091034,0.637890100479126,0.1116159483790397,-0.0998901724815368,-0.014110455289483,0.0456448681652545,0.0210528858006,0.0991564393043518,0.1887738555669784,1.2516629695892334,0.1105463728308677,-0.2031304687261581,-0.003546969499439,0.085404947400093,0.0495526902377605,0.1752355545759201,0.1035944446921348,0.7484353184700012,0.0950360670685768,-0.0958701223134994,0.0059767621569335,0.0509478077292442,0.0105471154674887,0.1041053533554077,0.1719278395175933,1.173115372657776,0.0737788751721382,-0.0661682710051536,-5.33502534381114e-05,0.1910311132669448,0.040381159633398,0.1631875336170196,0.1266345381736755,0.8024265766143799,0.0993433892726898,-0.1491084694862365,-0.0058295577764511,0.063590832054615,0.0347769595682621,0.1159448772668838,58.307762145996094,87.91911315917969,0.338018387556076,-80.21369934082031,-80.0000228881836,1.1259019374847412,35.864501953125,13.431309700012209,21.430683135986328,86.35287475585938,0.4229277372360229,-0.340157687664032,0.0157563649117946,0.7821549773216248,9.90516471862793,17.392616271972656,0.2839124798774719,1.739543318748474,0.1076104044914245,-0.0449865832924842,-9.871128713712096e-05,0.2077133357524871,0.0956143364310264,0.2322680205106735,0.2859271764755249,1.7149921655654907,0.1540052592754364,-0.0702333822846412,-0.0114668812602758,0.3026904761791229,0.0930626094341278,0.2380061000585556,0.2672928869724273,1.537132978439331,0.1728737950325012,-0.075929656624794,-0.0133195035159587,0.2733228504657745,0.081242024898529,0.2292878627777099,79.9891586303711,0.0,0.0,-80.0000228881836,-80.0000228881836,-80.0000228881836,9.550880432128906,10.341711044311523,0.2280333638191223,1.2123892307281494,0.1110811606049537,0.0653973594307899,0.2022617161273956,0.0100656738504767,0.8897108775259068,original unacceptable,-3.0205206133937246,0.7242070810715723
r00052,1089267,1089267,train,unacceptable,0,0,original_seta,0.1176926344633102,0.8279273509979248,0.1295914649963379,-0.0575929470360279,-0.0148952156305313,0.0942432060837745,0.0042844382114708,0.1169824451208114,0.1751993745565414,1.181311011314392,0.1556077748537063,-0.0929576382040977,-0.0402368903160095,0.1363247036933899,0.0066162659786641,0.1747986823320388,0.1217702776193618,0.8526028990745544,0.1406625062227249,-0.0753845870494842,-0.022802323102951,0.0511131174862384,0.0034848772920668,0.1221353486180305,0.1357492953538894,0.9376136660575868,0.1357365697622299,-0.1102245301008224,0.0282428413629531,0.0676062405109405,0.0052872183732688,0.1350864917039871,0.0818297564983367,0.6444523334503174,0.1106680780649185,-0.0347550362348556,0.0082851443439722,0.0576931051909923,0.0020762560889124,0.0817965641617775,0.1386951953172683,0.9780099987983704,0.1510743945837021,-0.0796532332897186,-0.0308783054351806,0.0904918313026428,0.0048116859979927,0.1387578397989273,79.9696273803711,0.0,0.0,-79.98001098632812,-79.98001098632812,-79.98001098632812,9.548506736755373,10.33912181854248,0.1215393915772438,0.7876460552215576,0.1339512765407562,-0.0400193594396114,-0.0088551389053463,0.152496263384819,0.0071315849199891,0.1195036619901657,0.1728973984718322,1.1248782873153689,0.159486785531044,-0.1028020530939102,-0.049217615276575,0.2700842618942261,0.009683989919722,0.1697087883949279,0.2570483684539795,1.7459250688552856,0.2292846143245697,-0.123024120926857,-0.0691864341497421,0.2409728914499282,0.0109615307301282,0.2554122805595398,0.2424805164337158,1.6343231201171875,0.2342269867658615,-0.1077973768115043,-0.0613618791103363,0.1835116744041443,0.009547796100378,0.2413098663091659,0.1795044243335724,1.229228973388672,0.1767609119415283,-0.0732058808207511,-0.0430710464715957,0.1197036281228065,0.0069332090206444,0.1786887198686599,0.1557962894439697,0.9578118324279784,0.1458684504032135,0.0067747374996542,0.154233306646347,0.2115716487169265,0.4412415714403666,original unacceptable,-4.975870377377054,-0.9867544597322251
r00059,1101829,1101829,train,unacceptable,0,0,original_seta,0.0873209536075592,0.4924597442150116,0.1439413428306579,-0.0801377370953559,-0.0050404109060764,0.1005575358867645,0.0054980870336294,0.0870195776224136,0.0897205993533134,0.518497109413147,0.1560571044683456,-0.0801074281334877,-0.0094351135194301,0.095684066414833,0.005114666186273,0.0894760116934776,0.0140537908300757,0.0712287202477455,0.0254896730184555,-0.0183211434632539,-0.0006560026668012,0.0159976910799741,0.0021403601858764,0.0138457780703902,0.0874936878681182,0.4935311675071716,0.1497864127159118,-0.0975068211555481,0.0067214090377092,0.0784906521439552,0.0051579973660409,0.0872095450758934,0.0428607054054737,0.2325805723667144,0.067308209836483,-0.040299579501152,-0.00081078405492,0.052975133061409,0.0032585957087576,0.0426320172846317,0.0464671067893505,0.2765083909034729,0.081736072897911,-0.0410776883363723,-0.0052083288319408,0.0474513992667198,0.0027439824771136,0.0463340133428573,0.1160952374339103,0.880728542804718,0.2163363993167877,-0.0796368494629859,-0.0008526624296791,0.0562786906957626,0.0034170229919254,0.1157218664884567,0.2571775317192077,1.2324609756469729,0.2777051627635956,-0.1534984856843948,0.0078291911631822,0.2302106320858001,0.0279214903712272,0.2554364502429962,3.912418365478516,24.785175323486328,0.8915536999702454,-5.511056423187256,0.035912774503231,1.569425106048584,1.0200636386871338,3.7894537448883057,0.4689124226570129,3.314982891082764,0.2820065021514892,-0.1573091745376587,0.0311333872377872,0.1739099472761154,0.0842986106872558,0.4521320760250091,0.1028170064091682,0.6023836731910706,0.1441648602485656,-0.0784500837326049,0.0204621069133281,0.1014414206147193,0.0049734245985746,0.1022403687238693,0.1020672917366027,0.5176783800125122,0.1022870913147926,-0.1185089722275734,0.0072199162095785,0.120855689048767,0.01720299012959,0.1037292703986167,0.0958939492702484,0.5180877447128296,0.1469756364822387,0.0051363315433263,0.0958581864833831,0.0530579127371311,0.529605284868126,original unacceptable,-6.404131756077736,-0.2416371819086438
r00062,1105115,1105115,train,unacceptable,0,0,original_seta,1.8421655893325808,14.817300796508787,0.6665507555007935,-0.214256539940834,0.024325031787157,1.1111280918121338,0.2754778265953064,1.8876765966415403,1.7429983615875244,14.305656433105469,0.2660254836082458,-0.1903586387634277,0.0399214401841163,0.9726334810256958,0.2665067017078399,1.7928810119628906,0.2728782296180725,1.3942713737487793,0.5287111401557922,-0.3101979494094848,0.0031029372476041,0.3458314836025238,0.0461270548403263,0.2698543965816498,1.787683367729187,14.557918548583984,0.4152834117412567,-0.9827643036842346,-0.0366285443305969,0.1622223556041717,0.269992470741272,1.8355270624160769,0.9869107007980348,7.641863822937012,0.583547830581665,-0.2348776310682296,-0.0022937331814318,0.6387923955917358,0.1457568854093551,1.0069249868392944,0.8411340713500977,6.860224723815918,0.2935008704662323,-0.1672685593366623,0.0197809822857379,0.540628969669342,0.1327076256275177,0.8674085736274719,0.5892475843429565,3.9689688682556152,0.2812726497650146,-0.4602887034416199,0.1023315116763114,0.49782395362854,0.0882506743073463,0.6148879528045654,2.208465814590454,12.380157470703123,0.6824619174003601,-2.280189514160156,0.0320451185107231,2.277893304824829,0.337872177362442,2.4142990112304688,0.9972786903381348,6.401340484619141,0.2810302674770355,-1.0157079696655271,0.0439402759075164,1.1422652006149292,0.1342168599367141,1.0644123554229736,0.5974101424217224,3.997437477111816,0.3012556731700897,-0.572104811668396,0.0366125144064426,0.6006026268005371,0.0955754742026329,0.6344755291938782,0.8095389008522034,4.704951763153076,0.3217648863792419,-1.038745999336243,0.0398175343871116,0.9424970149993896,0.136535033583641,0.8906506896018982,0.7841100096702576,4.586431980133057,0.3671833574771881,-0.941800057888031,0.0176545120775699,0.9270932078361512,0.1319888979196548,0.860429048538208,0.9140223860740662,6.630782604217529,0.3444741368293762,0.1353759467601776,0.948787808418274,0.2535091042518616,1.3983458220769656,original unacceptable,-5.923880922869904,1.4156618383244146
r00077,1136617,1136617,train,unacceptable,0,0,original_seta,0.1011987701058387,0.4828883409500122,0.114754669368267,-0.1161995977163314,0.0025352328084409,0.1371616423130035,0.0124281141906976,0.1016848385334014,0.2448991537094116,1.155200481414795,0.1756619662046432,-0.3269558250904083,-0.0289701260626316,0.2892155349254608,0.0623272284865379,0.2286999225616455,0.2025836408138275,1.060665488243103,0.1857202649116516,-0.2851115763187408,-0.0295687317848205,0.2053254544734954,0.0547791421413421,0.1857486069202423,0.1566682159900665,0.7031565308570862,0.1182517632842063,-0.1969504207372665,0.0140702361240983,0.2105492949485778,0.0354418605566024,0.1496767252683639,0.1036028042435646,0.5623634457588196,0.1216901466250419,-0.0905649065971374,0.0214168764650821,0.1361472457647323,0.0247893556952476,0.0970165878534317,0.2186415195465088,1.097113847732544,0.1699156612157821,-0.2962517440319061,-0.0299702808260917,0.2317037135362625,0.0582728236913681,0.2016818523406982,0.3921950161457062,2.086788415908813,0.1207876056432724,-0.2228436172008514,0.0163662955164909,0.1849773973226547,0.03566250577569,0.3984216749668121,0.1323335766792297,0.8632985353469849,0.1716224700212478,-0.1124862059950828,0.0319884866476058,0.1327113658189773,0.0162273477762937,0.1314846575260162,0.177333116531372,1.174156665802002,0.21464604139328,-0.115471713244915,0.0059152552857995,0.1617142111063003,0.0184966269880533,0.17322838306427,0.1524936705827713,0.958316206932068,0.1893913000822067,-0.1317832767963409,0.010448582470417,0.1678614914417266,0.023550996556878,0.1480890065431594,0.1301405280828476,0.7427128553390503,0.1294568479061126,-0.0946513041853904,0.0177975930273532,0.1647325009107589,0.0186605919152498,0.1287502497434616,0.1228324472904205,0.6457397937774658,0.1103133708238601,-0.1013474538922309,0.0150565449148416,0.1555010378360748,0.018790753558278,0.1198322176933288,0.1545809507369995,0.9108073711395264,0.1496862471103668,0.0241701751947402,0.1488828659057617,0.1588908284902572,1.564117903296582,original unacceptable,-6.3852139922175475,-0.7138063043715618
r00078,1136770,1136770,train,unacceptable,0,0,original_seta,0.1574100404977798,1.2403922080993652,0.2260839492082595,-0.0565745420753955,-0.0019692168571054,0.0498440824449062,0.004316808655858,0.1570616513490677,0.1088212728500366,0.8529390096664429,0.1052746772766113,-0.0511192195117473,0.0097063742578029,0.0553535968065261,0.0036318248603492,0.1079071164131164,0.1036815494298935,0.7494720220565796,0.1109940633177757,-0.0187720116227865,0.0117258401587605,0.0534964874386787,0.0035012362059205,0.1033999398350715,0.1244983971118927,0.9861353635787964,0.1471800506114959,-0.0455012619495391,-0.0042327530682086,0.0524048432707786,0.0035218785051256,0.1239590570330619,0.1214076578617096,0.913344383239746,0.1782461404800415,-0.0410696566104888,-0.0085682887583971,0.0302533023059368,0.0034814425744116,0.1212675124406814,0.0713003873825073,0.604141354560852,0.0898023024201393,-0.0192649327218532,0.0089965760707855,0.0420761443674564,0.0028424428310245,0.0705977454781532,0.1424478739500045,1.1001001596450806,0.1864346265792846,-0.0692278072237968,-0.0001529669680166,0.0615198537707328,0.0048057818785309,0.1409118324518203,79.9891586303711,0.0,0.0,-80.0000228881836,-80.0000228881836,-80.0000228881836,9.550880432128906,10.341711044311523,0.2221212536096573,1.7395222187042236,0.1795125901699066,-0.0890286788344383,-0.0177402961999177,0.0411776863038539,0.0094303488731384,0.220860555768013,0.2365078181028366,1.835073709487915,0.1987147778272628,-0.0818263888359069,-0.0129610849544405,0.0363128781318664,0.0096266083419322,0.2356511652469635,0.1896493583917617,1.4501073360443115,0.1842125952243805,-0.0629896521568298,-0.0107818460091948,0.0233927480876445,0.0059521021321415,0.1891389638185501,0.1432588398456573,1.0927261114120483,0.1482734829187393,-0.0575203597545623,-0.0023715803399682,0.0253108032047748,0.0058660870417952,0.1426478177309036,0.1428533494472503,1.0394307374954224,0.1632598042488098,0.0045612952671945,0.141779825091362,0.1208974719047546,0.6061134886548984,original unacceptable,-4.9616115245051855,-0.9106071014767967
r00082,1139166,1139166,train,unacceptable,0,0,original_seta,0.1820439249277115,0.8190673589706421,0.0954241752624511,-0.1474895775318145,-0.0266340021044015,0.2824185788631439,0.0102976709604263,0.1834706217050552,0.0803761109709739,0.4062129855155945,0.0668308362364769,-0.0737377777695655,-0.0006452105008065,0.1208361238241195,0.0053331456147134,0.0808135792613029,0.2452210932970047,1.1164417266845703,0.1397793591022491,-0.3989875912666321,0.023062651976943,0.2603660821914673,0.0148176336660981,0.247346431016922,0.0683456510305404,0.3252626657485962,0.0478882156312465,-0.0825979635119438,0.0142964366823434,0.043300449848175,0.0034923937637358,0.0685527250170707,0.2127525359392166,0.956334114074707,0.1186257153749466,-0.2057454735040664,-0.0247402936220169,0.3384115099906921,0.0125413024798035,0.2145624011754989,0.1589189320802688,0.7516311407089233,0.0921792089939117,-0.2301978021860122,0.013702992349863,0.1873752027750015,0.0099397031590342,0.1602686941623687,0.0899228826165199,0.4176917374134063,0.0545582100749015,-0.1045943796634674,0.0306622944772243,0.0792869478464126,0.0052288467995822,0.0902228355407714,0.1268633604049682,0.6803683638572693,0.1045490577816963,-0.1336691975593567,0.0231285691261291,0.1260896325111389,0.0076507381163537,0.1277923434972763,79.94873046875,0.0,0.0,-79.96001434326172,-79.96001434326172,-79.96001434326172,9.546183586120604,10.336535453796388,0.4398136734962463,2.3172128200531006,0.1862974613904953,-0.4326200485229492,0.0472363233566284,0.4638579189777374,0.0259564667940139,0.443815529346466,0.179370179772377,0.8662205934524536,0.0821002498269081,-0.2397053986787796,0.0148883983492851,0.2309015542268753,0.0132756661623716,0.1814865469932556,0.0680065229535102,0.3825781047344208,0.0681376531720161,-0.043115884065628,-0.0091074267402291,0.075694516301155,0.0033556348644196,0.0678533166646957,0.1691445559263229,0.7159997224807739,0.0871397256851196,0.0101186875253915,0.1708776205778122,0.106513001024723,0.3220382894611595,original unacceptable,-4.968937902784269,-1.3606499400283494
r00087,1156063,1156063,train,unacceptable,0,0,original_seta,0.1636030673980713,0.8207798600196838,0.286888062953949,-0.06828124076128,-0.0385472476482391,0.0560196824371814,0.0039922669529914,0.164030522108078,0.1244241520762443,0.8551042079925537,0.2238681018352508,-0.0778594762086868,0.0018238584743812,0.0533396936953067,0.0040928148664534,0.1245878711342811,0.124481700360775,0.6916792392730713,0.2227117717266082,-0.0600429363548755,0.0380143672227859,0.0656359270215034,0.004768983926624,0.1244593560695648,0.1309462040662765,0.7514647245407104,0.2500885725021362,-0.0323958918452262,0.0170890763401985,0.0636905059218406,0.0032633147202432,0.1312524527311325,0.1313828974962234,0.6461619138717651,0.2056740075349807,-0.0568341091275215,-0.0402056314051151,0.0934010446071624,0.0039376267232,0.131587415933609,0.0940822809934616,0.6299483776092529,0.1830594092607498,-0.0542480088770389,0.0216467194259166,0.0566825866699218,0.0039656963199377,0.0939433053135871,0.2204920500516891,1.1939547061920166,0.4243542850017547,-0.0381691195070743,0.0448619574308395,0.1469884067773819,0.0056368592195212,0.2216686159372329,0.1941813975572586,1.1763010025024414,0.4043933153152466,-0.0315841250121593,0.0235185846686363,0.1495128124952316,0.0054369857534766,0.1950264126062393,0.58024001121521,3.089540243148804,0.9982039332389832,-0.2640679776668548,0.0778366029262542,0.4474791884422302,0.0387838333845138,0.582789421081543,5.566381454467773,27.95032119750977,3.671065330505371,-6.283874034881592,-0.7460973858833313,7.70128870010376,0.7859851717948914,5.871905326843262,0.2743861675262451,1.760967254638672,0.5529431700706482,-0.1085266694426536,-0.0477201789617538,0.0484745912253856,0.0058692572638392,0.2745354473590851,0.2479603141546249,1.4311448335647583,0.4949325323104858,-0.1087447479367256,-0.0466471388936042,0.030367711558938,0.0053408225066959,0.2484690099954605,0.1788922250270843,1.0157026052474976,0.3456406891345978,0.00505490321666,0.1795284748077392,-0.0098094558343291,0.6878250413608932,original unacceptable,-6.5455716939037325,0.805463058983233
r00089,1163558,1163558,train,unacceptable,0,0,original_seta,0.1297096312046051,0.8020509481430054,0.1485543847084045,-0.078984223306179,-0.0341893061995506,0.1211614161729812,0.0046957810409367,0.1291566789150238,0.1175488531589508,0.8368704915046692,0.1569379270076751,-0.0764289051294326,-0.0236196275800466,0.1185434162616729,0.0085764853283762,0.116979032754898,0.1069856509566307,0.7899104952812195,0.1559564620256424,-0.048175286501646,0.0062983813695609,0.0877012535929679,0.0111097889021039,0.1059784069657325,0.1109561622142791,0.7333256602287292,0.0942056998610496,-0.1053094193339347,0.0269434414803981,0.0690098255872726,0.0040985061787068,0.1105501055717468,0.1033411100506782,0.6610497832298279,0.1238561794161796,-0.0701843872666359,-0.01609393581748,0.061456624418497,0.0074756820686161,0.1026263311505317,0.091784119606018,0.68829345703125,0.0980499386787414,-0.0531659349799156,-0.0048709162510931,0.0888190194964408,0.0096664763987064,0.0909953489899635,0.3069047331809997,2.521718263626098,0.4297157824039459,-0.0770271867513656,0.0536929443478584,0.1342029422521591,0.0073587368242442,0.3064161539077759,0.3444539606571197,2.7867677211761475,0.5465831160545349,-0.1476333141326904,0.0033555680420249,0.3091059625148773,0.0085965599864721,0.3436753153800964,0.1706022769212722,1.3347253799438477,0.268448144197464,-0.0793808251619339,-0.0139498077332973,0.1666403412818908,0.007733054459095,0.1699860095977783,79.9891586303711,0.0,0.0,-80.0000228881836,-80.0000228881836,-80.0000228881836,9.550880432128906,10.341711044311523,0.0927003100514411,0.7026982307434082,0.1360285729169845,-0.0526715964078903,-0.0115664470940828,0.091653473675251,0.0079082213342189,0.0919145941734314,0.0787363871932029,0.5911813974380493,0.116439551115036,-0.0463736318051815,-0.0099934432655572,0.0764654576778411,0.0075571229681372,0.0779536217451095,0.1142525076866149,0.7616180777549744,0.1422914862632751,0.0078206378966569,0.1137645691633224,0.1835923641920089,0.3659918307129521,original unacceptable,-5.073568137635026,-0.8290585629864252
r00095,1169320,1169320,train,unacceptable,0,0,original_seta,0.1379385143518448,0.7305938601493835,0.105538010597229,-0.0924640297889709,-0.0140289422124624,0.0908492803573608,0.0115180183202028,0.1386259943246841,0.0454289987683296,0.2143324613571167,0.0454359203577041,-0.0487858913838863,0.0083787171170115,0.0629040673375129,0.0056406515650451,0.0431393645703792,0.144776239991188,0.7835312485694885,0.1092696040868759,-0.0607038214802742,0.0162547174841165,0.0954235270619392,0.0139669319614768,0.1449844539165496,0.0721581652760505,0.3799437880516052,0.0585173852741718,-0.0663925111293792,0.0038957402575761,0.0548800304532051,0.0057124425657093,0.0720258355140686,0.1396699994802475,0.7516242265701294,0.1044930070638656,-0.089822731912136,-0.0154071394354105,0.0659539401531219,0.012522729113698,0.1402916014194488,0.0825375020503997,0.4312189519405365,0.076539397239685,-0.0414312630891799,0.0159234534949064,0.0638013482093811,0.0089095020666718,0.0818506181240081,0.2734501659870147,1.4423772096633911,0.1571800857782364,-0.2619298100471496,-0.0320541411638259,0.4268493950366974,0.054992277175188,0.2697489857673645,0.2014041543006897,1.1598265171051023,0.2234600186347961,-0.1251648962497711,-0.0350928045809268,0.1114605739712715,0.0095918551087379,0.1993278563022613,0.197350189089775,1.1299757957458496,0.2232879549264907,-0.1180380955338478,-0.0321751497685909,0.1082976385951042,0.0084163444116711,0.1957281827926635,0.1507877260446548,0.8862199187278748,0.1814044713973999,-0.0941884592175483,-0.0186644364148378,0.0972774997353553,0.0060599842108786,0.1504507511854171,0.0937886387109756,0.6062986850738525,0.1271057724952697,-0.0595284216105937,0.0112181287258863,0.0908198654651641,0.0046379151754081,0.0932883620262146,0.0988363251090049,0.5790166258811951,0.1219742968678474,-0.0811199024319648,0.0273926146328449,0.0889750719070434,0.0079452423378825,0.0959652736783027,0.1388042569160461,0.7411090135574341,0.1156219542026519,0.0086629232391715,0.1394588053226471,0.1427229940891266,1.5824969080111435,original unacceptable,-6.411454488746956,-0.8944503944593981
r00105,1192090,1192090,train,unacceptable,0,0,original_seta,0.0731930434703826,0.4053617119789123,0.1225474923849105,-0.0619674734771251,0.0111240521073341,0.0960201919078826,0.0085963252931833,0.0698976665735244,0.1067690327763557,0.6748782396316528,0.1956322491168975,-0.0866717845201492,-0.0025462890043854,0.1244156882166862,0.0087341899052262,0.1043559312820434,0.0558720752596855,0.3948203921318054,0.1121119633316993,-0.0484939664602279,-0.0053040250204503,0.0515700727701187,0.0036752584856003,0.0555280074477195,0.0862104967236518,0.5042834281921387,0.1608482450246811,-0.1064809411764144,-0.0041314410045742,0.07400494068861,0.0083382138982415,0.0834485962986946,0.0368068590760231,0.1841828674077987,0.0586526505649089,-0.029720701277256,0.0087063685059547,0.0499382987618446,0.0048925881274044,0.0350854806602001,0.0763099044561386,0.5279148817062378,0.1427016854286193,-0.0548781938850879,-0.0044050300493836,0.0828101560473442,0.0050618001259863,0.0753212571144104,0.0778701081871986,0.4640035033226013,0.1294602155685424,-0.0598436705768108,0.0264383237808942,0.0773035064339637,0.0035376916639506,0.0769344866275787,0.0976974368095398,0.5211231708526611,0.1326836049556732,-0.0239645726978778,0.0349795669317245,0.0661042407155036,0.0036572141107171,0.0965876504778862,0.2687523066997528,1.3464469909667969,0.3284243643283844,-0.2124835848808288,0.0782415196299552,0.1805701255798339,0.0114063490182161,0.2642832696437835,0.2007869035005569,1.2667688131332395,0.28554168343544,-0.0822503119707107,0.0262391529977321,0.158633753657341,0.0074487207457423,0.1983550041913986,79.9891586303711,0.0,0.0,-80.0000228881836,-80.0000228881836,-80.0000228881836,9.550880432128906,10.341711044311523,79.9891586303711,0.0,0.0,-80.0000228881836,-80.0000228881836,-80.0000228881836,9.550880432128906,10.341711044311523,0.0919539630413055,0.48414346575737,0.1310719102621078,0.0078934673219919,0.0900181233882904,0.0746540278196334,0.4640296860050512,original unacceptable,-3.7019452423894657,-1.0907225195308088
r00107,1192637,1192637,train,unacceptable,0,0,original_seta,79.9891586303711,0.0,0.0,-80.0000228881836,-80.0000228881836,-80.0000228881836,9.550880432128906,10.341711044311523,0.1869706809520721,1.022793889045715,0.0621796883642673,-0.2020980715751648,-0.0463662147521972,0.1919470578432083,0.0423117317259311,0.182124063372612,79.9818344116211,1.1423110961914062,0.0872664675116539,79.79222106933594,79.95645141601562,80.20970153808594,9.556053161621094,10.332204818725586,39.99768829345703,0.5629615783691406,0.0436896905303001,39.894832611083984,40.02114486694336,40.10378646850586,4.772868633270264,5.177103042602539,79.98527526855469,0.5723648071289062,0.0436660088598728,-80.10577392578125,-79.9776840209961,-79.8949966430664,9.553451538085938,10.336444854736328,39.98747253417969,1.1070938110351562,0.083973653614521,39.79223251342773,39.95642852783203,40.20562362670898,4.780695915222168,5.162959575653076,79.9891586303711,0.0,0.0,-80.0000228881836,-80.0000228881836,-80.0000228881836,9.550880432128906,10.341711044311523,79.9891586303711,0.0,0.0,-80.0000228881836,-80.0000228881836,-80.0000228881836,9.550880432128906,10.341711044311523,79.9891586303711,0.0,0.0,-80.0000228881836,-80.0000228881836,-80.0000228881836,9.550880432128906,10.341711044311523,79.9891586303711,0.0,0.0,-80.0000228881836,-80.0000228881836,-80.0000228881836,9.550880432128906,10.341711044311523,79.9891586303711,0.0,0.0,-80.0000228881836,-80.0000228881836,-80.0000228881836,9.550880432128906,10.341711044311523,79.9891586303711,0.0,0.0,-80.0000228881836,-80.0000228881836,-80.0000228881836,9.550880432128906,10.341711044311523,79.9891586303711,0.0,0.0,9.550880432128906,10.341711044311523,0.1193672344088554,1.0879005945190698,original unacceptable,7.572101156080176,-1.852197583826191
r00112,1202296,1202296,train,unacceptable,0,0,original_seta,0.1519549190998077,1.0179766416549685,0.1167511120438575,-0.0901689454913139,-0.0313947349786758,0.1272254288196563,0.0141606172546744,0.1542565375566482,0.1015750765800476,0.6286665201187134,0.1219620481133461,-0.0845380425453186,-0.0083689019083976,0.1055473834276199,0.0082454234361648,0.1022943332791328,0.0852921158075332,0.5294674634933472,0.0602377019822597,-0.0640648454427719,0.0169603116810321,0.0646435022354126,0.0113955754786729,0.0865752547979354,0.1213524565100669,0.7883597612380981,0.1190509125590324,-0.1084509268403053,0.0181834511458873,0.0812933892011642,0.0099701611325144,0.1228203326463699,0.1119563654065132,0.7819368839263916,0.0671533793210983,-0.0682094544172287,-0.0249243602156639,0.0909914150834083,0.0121407909318804,0.1138206645846366,0.0548330470919609,0.3157995641231537,0.0627670213580131,-0.0530450567603111,0.0053200684487819,0.062121532857418,0.0070196986198425,0.0548607632517814,0.1131025925278663,0.7969464063644409,0.0885714367032051,-0.0384348183870315,0.0264843869954347,0.0680531561374664,0.0065867560915648,0.1135612577199935,0.1202697306871414,0.8831273317337036,0.085299327969551,-0.0400287136435508,0.0157649554312229,0.076873280107975,0.0122670587152242,0.1202002540230751,0.0858005955815315,0.6949613094329834,0.0868127048015594,-0.0463113486766815,0.0016818991862237,0.0676319077610969,0.0068316203542053,0.085534930229187,0.131342664361,0.8896109461784363,0.0650046914815902,-0.0679019913077354,-0.0207090750336647,0.0925714522600174,0.0082004312425851,0.1324526667594909,0.1325399577617645,0.8749070167541504,0.0612004622817039,-0.0765847414731979,-0.0233454722911119,0.1003530472517013,0.0107759898528456,0.1343617290258407,79.9891586303711,0.0,0.0,-80.0000228881836,-80.0000228881836,-80.0000228881836,9.550880432128906,10.341711044311523,0.1166861653327941,0.7851483225822449,0.0762263536453247,0.01037307549268,0.1170104593038559,0.0978964865207672,0.3192244807644357,original unacceptable,-5.126619128142171,-1.3106568104329943
r00116,1220041,1220041,train,unacceptable,0,0,original_seta,0.0877323597669601,0.4999569952487945,0.1465200930833816,-0.0751957446336746,-0.0182743892073631,0.096549741923809,0.0040514045394957,0.0877643451094627,0.2767141163349151,1.376903772354126,0.3533552587032318,-0.1707928478717804,-0.0716506689786911,0.261723130941391,0.0106662828475236,0.2772158980369568,0.2384580224752426,1.1816833019256592,0.2969591319561004,-0.1694665551185608,-0.0613313131034374,0.1833269000053405,0.0095467707142233,0.2388084977865219,0.1664019525051117,0.8395147323608398,0.2347602844238281,-0.1581877917051315,0.044028952717781,0.1015838012099266,0.0064523327164351,0.1666849255561828,0.1151483058929443,0.5624659657478333,0.143011674284935,-0.0782112479209899,0.027303397655487,0.1050765439867973,0.0049550295807421,0.1152008697390556,0.2541383802890777,1.2648096084594729,0.315072238445282,-0.1636346578598022,-0.0664655864238739,0.2578626275062561,0.0099137099459767,0.25456702709198,0.1656736731529235,1.0228383541107178,0.2933060228824615,-0.0613682717084884,0.030189536511898,0.1058859080076217,0.0046139089390635,0.165921539068222,0.3457632958889007,2.3175137042999268,0.5933135747909546,-0.1332309246063232,-0.0008822802919894,0.2248092591762542,0.0068741710856556,0.3467850983142853,0.9588503837585448,4.666483879089356,1.212426781654358,-0.7542567849159241,-0.1115914136171341,0.8875126838684082,0.0810865685343742,0.9750502109527588,0.401915043592453,2.2455568313598637,0.6473978757858276,-0.2545326054096222,-0.098164863884449,0.2602517902851105,0.0101226009428501,0.4032051563262939,0.4189111888408661,2.182879686355591,0.694304883480072,-0.2519755363464355,-0.1094575896859169,0.255838543176651,0.011282343417406,0.4202373921871185,0.3718433082103729,1.9174590110778809,0.568452000617981,-0.2140603065490722,-0.0981641411781311,0.3050224483013153,0.0105973659083247,0.3730201721191406,0.2654262483119964,1.320856690406799,0.3342137336730957,0.0097302403301,0.2658914625644684,0.12789286673069,1.165804708771923,original unacceptable,-6.593576033389232,0.7634834542757325
r00117,1221733,1221733,train,unacceptable,0,0,original_seta,0.1776667535305023,1.182912826538086,0.106666199862957,-0.0845672562718391,-0.0363349840044975,0.2484483122825622,0.0040804944001138,0.1786608248949051,0.1533443182706833,0.938627541065216,0.1078703477978706,-0.0956638678908348,-0.0500508025288581,0.2297886162996292,0.0043193171732127,0.1541930884122848,0.0844390019774437,0.4357895255088806,0.0659670978784561,-0.0490638017654418,-0.0213546454906463,0.072225697338581,0.0025309391785413,0.0849435403943061,0.1597649455070495,1.0608456134796145,0.0984512120485305,-0.2307182848453521,0.0443184748291969,0.0870739668607711,0.0039807930588722,0.1606347411870956,0.1155032739043235,0.6782559156417847,0.0806845501065254,-0.0380990169942379,-0.0057219294831156,0.1357523202896118,0.0026045551057904,0.1161560490727424,0.0857355967164039,0.4413197040557861,0.0896602347493171,-0.0561379566788673,-0.027839696034789,0.1058784872293472,0.0028867882210761,0.0862113162875175,0.1668869704008102,0.98905348777771,0.128438800573349,-0.1682233810424804,0.0014877112116664,0.0519264601171016,0.0039327456615865,0.1679608821868896,0.0944025516510009,0.7040247321128845,0.1303690373897552,-0.0540109761059284,-0.0072093894705176,0.0668395385146141,0.0024496442638337,0.0945119559764862,0.1423093378543853,1.0505690574645996,0.128959447145462,-0.0814503207802772,-0.0233145635575056,0.0957822650671005,0.0036003373097628,0.1428767442703247,0.0,0.0,0.0,0.0,0.0,0.0,0.0,0.0,0.1717637032270431,1.1646037101745603,0.0948331952095031,-0.0908032059669494,-0.0497949942946434,0.2130013704299926,0.0052021690644323,0.1726472377777099,0.1558160185813903,1.0134074687957764,0.1043579876422882,-0.0815307348966598,-0.0486476272344589,0.2107338309288025,0.0043869982473552,0.1566888093948364,0.1478268206119537,0.9638404846191406,0.1014045998454094,0.0037665413692593,0.1485349237918853,0.2030554115772247,2.15152180320834,original unacceptable,-6.357242890843108,-0.9036355941809459
r00128,1243537,1243537,train,unacceptable,0,0,original_seta,0.0727351978421211,0.5608139634132385,0.0893262401223182,-0.0352934300899505,-0.0063427947461605,0.0368833132088184,0.0060382005758583,0.0724801868200302,0.070633940398693,0.4657379984855652,0.0515200942754745,-0.0527802854776382,-0.0111132767051458,0.0741706043481826,0.0039492165669798,0.0701218098402023,0.0458913967013359,0.294363260269165,0.044432908296585,-0.0436459928750991,-0.0023559052497148,0.0562834776937961,0.0043139513581991,0.0454646423459053,0.0671391412615776,0.4874778985977173,0.0604265965521335,-0.049607366323471,0.0071921087801456,0.0389840230345726,0.0046182461082935,0.0667782723903656,0.0493510328233242,0.367626428604126,0.0438780523836612,-0.0303716547787189,-0.0022402270697057,0.0275160316377878,0.0048716077581048,0.0491174794733524,0.0467205867171287,0.2712852954864502,0.0452848933637142,-0.0434049479663372,-0.0053160646930336,0.0660995543003082,0.0027572663966566,0.0462333783507347,0.1170383542776107,0.7166575193405151,0.1224342212080955,-0.0445930957794189,0.0307118594646453,0.0768022686243057,0.005611028522253,0.1165653765201568,0.1027301326394081,0.634324312210083,0.0960550755262374,-0.040906585752964,0.0278103295713663,0.0831236243247985,0.005025784485042,0.1012559756636619,0.2854571938514709,1.8521795272827148,0.2862364053726196,-0.0550376623868942,0.0252021346241235,0.263865977525711,0.0169617366045713,0.2807882130146026,0.1467948853969574,1.252342939376831,0.2032459378242492,-0.058028470724821,0.0061817457899451,0.1072367802262306,0.0074041602201759,0.1458207219839096,0.1076939702033996,0.8426510691642761,0.1171508878469467,-0.0507075600326061,-0.0085117751732468,0.0560200959444046,0.0053126388229429,0.1074361354112625,23.52843475341797,80.38031005859375,0.2175631672143936,-0.3093136548995971,-0.0260861851274967,0.0248844176530838,11.47139835357666,15.021035194396973,0.0877326652407646,0.5975691080093384,0.0926906615495681,0.0051692118868231,0.0868680775165557,0.0379403159022331,0.0656027570426178,original unacceptable,-6.005345698784988,-0.49408715065566916
r00130,1254724,1254724,train,unacceptable,0,0,original_seta,0.0980766862630844,0.7343287467956543,0.1028636917471885,-0.0570168271660804,-0.0122420350089669,0.1031570136547088,0.0076073538511991,0.0964977890253067,0.102796547114849,0.765483021736145,0.113184668123722,-0.0584230199456214,-0.0102934762835502,0.1075399518013,0.0077388500794768,0.1011096909642219,0.0116321556270122,0.0556576550006866,0.0272973347455263,-0.013120855204761,0.0005453540361486,0.0159003734588623,0.0011506220325827,0.011502455919981,0.099671684205532,0.7502073645591736,0.1056646332144737,-0.1042150184512138,0.0103437062352895,0.0553057640790939,0.0074912440031766,0.0980676040053367,0.0467153862118721,0.3438519835472107,0.0467457063496112,-0.0283932648599147,-0.0048144357278943,0.0483938492834568,0.0037008514627814,0.0460060127079486,0.0537661425769329,0.3949741423130035,0.0588650219142437,-0.0301227290183305,-0.0031758705154061,0.0552176460623741,0.0038766444195061,0.052881971001625,0.156902015209198,1.2880959510803225,0.2158073633909225,-0.0497064627707004,0.0155544746667146,0.1043177098035812,0.010851957835257,0.1548997610807418,0.2277534902095794,1.8289568424224851,0.2944372296333313,-0.0742362812161445,0.0021355845965445,0.2005282044410705,0.0167249627411365,0.223965898156166,0.2583145201206207,2.1661694049835205,0.3260888159275055,-0.0820626243948936,-0.0068912748247385,0.2222503423690796,0.0190668832510709,0.2544057667255401,0.2301074117422104,2.028198003768921,0.2684862017631531,-0.0611442923545837,0.0043828948400914,0.162771388888359,0.0178450010716915,0.227299228310585,0.1898978948593139,1.7034029960632324,0.2166708409786224,-0.0478624515235424,0.002898680511862,0.1022227481007576,0.0154255907982587,0.1877821087837219,0.1119780987501144,0.972163200378418,0.1235617250204086,-0.0423522554337978,0.006165413185954,0.0685289576649665,0.0121039152145385,0.1097267940640449,0.1073873192071914,0.8688231110572815,0.1183732002973556,0.0092954039573669,0.1054182425141334,0.4897256791591644,1.7018788797017277,original unacceptable,-6.271132373882434,-0.8388866260645499
r00131,1255536,1255536,train,unacceptable,0,0,original_seta,79.9891586303711,0.0,0.0,-80.0000228881836,-80.0000228881836,-80.0000228881836,9.550880432128906,10.341711044311523,79.9891586303711,0.0,0.0,-80.0000228881836,-80.0000228881836,-80.0000228881836,9.550880432128906,10.341711044311523,0.0,0.0,0.0,0.0,0.0,0.0,0.0,0.0,79.9891586303711,0.0,0.0,80.0000228881836,80.0000228881836,80.0000228881836,9.550880432128906,10.341711044311523,39.99457931518555,0.0,0.0,-40.0000114440918,-40.0000114440918,-40.0000114440918,4.775440216064453,5.170855522155762,39.99457931518555,0.0,0.0,-40.0000114440918,-40.0000114440918,-40.0000114440918,4.775440216064453,5.170855522155762,79.9891586303711,0.0,0.0,-80.0000228881836,-80.0000228881836,-80.0000228881836,9.550880432128906,10.341711044311523,79.9891586303711,0.0,0.0,-80.0000228881836,-80.0000228881836,-80.0000228881836,9.550880432128906,10.341711044311523,79.9891586303711,0.0,0.0,-80.0000228881836,-80.0000228881836,-80.0000228881836,9.550880432128906,10.341711044311523,79.9891586303711,0.0,0.0,-80.0000228881836,-80.0000228881836,-80.0000228881836,9.550880432128906,10.341711044311523,79.9891586303711,0.0,0.0,-80.0000228881836,-80.0000228881836,-80.0000228881836,9.550880432128906,10.341711044311523,79.9891586303711,0.0,0.0,-80.0000228881836,-80.0000228881836,-80.0000228881836,9.550880432128906,10.341711044311523,79.9891586303711,0.0,0.0,9.550880432128906,10.341711044311523,0.6368899345397949,1.0177469400908588,original unacceptable,9.493092946138832,-2.889849349410723
r00137,1279102,1279102,train,unacceptable,0,0,original_seta,0.0497751720249652,0.2570810616016388,0.0263200439512729,-0.0518896654248237,0.0145653989166021,0.0604290477931499,0.0035998541861772,0.0491608902812004,0.0693615898489952,0.3326120376586914,0.076212577521801,-0.0856454148888588,0.0068073845468461,0.0877240896224975,0.0040423292666673,0.0692122057080268,0.0640245452523231,0.3034005165100097,0.0774116218090057,-0.0761222839355468,-0.008955368772149,0.0709119886159896,0.0043492773547768,0.0644647926092147,0.0503554306924343,0.2286145985126495,0.0415438413619995,-0.067058615386486,-0.0106620909646153,0.0656172484159469,0.0030848630703985,0.0498308986425399,0.0458928234875202,0.2594705820083618,0.0419844649732112,-0.0515468418598175,0.0118125807493925,0.055115021765232,0.0034816002007573,0.0459525324404239,0.0617870204150676,0.2991702258586883,0.0748289451003074,-0.0773504897952079,-0.0011881310492753,0.071068562567234,0.0038278582505881,0.0620620250701904,0.0483058653771877,0.2278424352407455,0.0379528179764747,-0.0514824986457824,0.0072627402842044,0.0630045086145401,0.003021934069693,0.0474184490740299,0.0705567374825477,0.3145396411418915,0.0465031117200851,-0.0990105420351028,0.0238515473902225,0.0815916582942009,0.0052273822948336,0.0711324140429496,0.3735595941543579,1.7403684854507446,0.3122234046459198,-0.5764736533164978,0.0995961353182792,0.3193951249122619,0.0124957002699375,0.3730917572975158,0.4730337858200073,2.361255168914795,0.3165888488292694,-0.65946364402771,0.107867419719696,0.4614999294281006,0.0131736285984516,0.473258912563324,0.1247054859995842,0.568838357925415,0.0863259807229042,-0.1897549033164978,0.0323512032628059,0.1326508671045303,0.0052972347475588,0.1248009800910949,0.0424738265573978,0.2110486030578613,0.0252858027815818,-0.0397096127271652,0.0096878614276647,0.0544274896383285,0.003876635339111,0.0421752519905567,0.0629057809710502,0.3012853860855102,0.0606660284101963,0.0039594825357198,0.0632634088397026,0.1524651050567627,2.047633371060738,original unacceptable,-6.400287139878714,-0.9692436478147173
r00145,1295738,1295738,train,unacceptable,0,0,original_seta,79.9891586303711,0.0,0.0,-80.0000228881836,-80.0000228881836,-80.0000228881836,9.550880432128906,10.341711044311523,79.9891586303711,0.0,0.0,-80.0000228881836,-80.0000228881836,-80.0000228881836,9.550880432128906,10.341711044311523,0.0,0.0,0.0,0.0,0.0,0.0,0.0,0.0,79.9891586303711,0.0,0.0,80.0000228881836,80.0000228881836,80.0000228881836,9.550880432128906,10.341711044311523,39.99457931518555,0.0,0.0,-40.0000114440918,-40.0000114440918,-40.0000114440918,4.775440216064453,5.170855522155762,39.99457931518555,0.0,0.0,-40.0000114440918,-40.0000114440918,-40.0000114440918,4.775440216064453,5.170855522155762,79.9891586303711,0.0,0.0,-80.0000228881836,-80.0000228881836,-80.0000228881836,9.550880432128906,10.341711044311523,79.9891586303711,0.0,0.0,-80.0000228881836,-80.0000228881836,-80.0000228881836,9.550880432128906,10.341711044311523,79.9891586303711,0.0,0.0,-80.0000228881836,-80.0000228881836,-80.0000228881836,9.550880432128906,10.341711044311523,79.9891586303711,0.0,0.0,-80.0000228881836,-80.0000228881836,-80.0000228881836,9.550880432128906,10.341711044311523,79.9891586303711,0.0,0.0,-80.0000228881836,-80.0000228881836,-80.0000228881836,9.550880432128906,10.341711044311523,79.9891586303711,0.0,0.0,-80.0000228881836,-80.0000228881836,-80.0000228881836,9.550880432128906,10.341711044311523,79.9891586303711,0.0,0.0,9.550880432128906,10.341711044311523,0.6368899345397949,1.0177469400908588,original unacceptable,9.493092946138832,-2.889849349410723
r00149,1301273,1301273,train,unacceptable,0,0,original_seta,0.1234044283628463,0.7225072979927063,0.1578129976987838,-0.0534426569938659,-0.0133852176368236,0.0920633003115654,0.0133690740913152,0.1213133558630943,0.104878544807434,0.5813480615615845,0.1302996426820755,-0.0777105391025543,-0.0244187451899051,0.1524105221033096,0.0097884545102715,0.104662112891674,0.0685742795467376,0.4061629176139831,0.0853108987212181,-0.0719068050384521,-0.0060060517862439,0.0683268681168556,0.0073168855160474,0.0682726576924324,0.1085889339447021,0.639268159866333,0.1406295597553253,-0.1211246848106384,0.0187332667410373,0.0591987930238246,0.0110357776284217,0.1073092818260192,0.084694318473339,0.4679391384124756,0.1157820969820022,-0.0399928949773311,-0.0052197696641087,0.0492199845612049,0.0095455171540379,0.0831004306674003,0.0630612000823021,0.2856624722480774,0.0683177188038826,-0.0656606927514076,-0.0166286379098892,0.1016691178083419,0.0054700342006981,0.0637047812342643,79.9891586303711,0.0,0.0,-80.0000228881836,-80.0000228881836,-80.0000228881836,9.550880432128906,10.341711044311523,0.169141486287117,0.9847372174263,0.2211617976427078,-0.0924827829003334,-0.0279718786478042,0.2553531229496002,0.0118369283154606,0.1704796254634857,0.1949026435613632,1.2197675704956057,0.2619848549365997,-0.1372536569833755,-0.0160449258983135,0.2545662224292755,0.0183751974254846,0.1979933679103851,79.9891586303711,0.0,0.0,-80.0000228881836,-80.0000228881836,-80.0000228881836,9.550880432128906,10.341711044311523,0.1037151888012886,0.5776428580284119,0.1408083140850067,-0.0610038489103317,-0.0301246307790279,0.1103491932153701,0.0057898652739822,0.1041460037231445,0.0904119685292244,0.492961049079895,0.1078753769397735,-0.0528048276901245,-0.0216731168329715,0.0907426699995994,0.0063364566303789,0.0905660241842269,0.1067337393760681,0.535301923751831,0.1230408698320388,0.0104121156036853,0.1059857010841369,0.1572058200836181,0.4608742963399915,original unacceptable,-3.6616739014696065,-1.0515177522999604
r00161,1327085,1327085,train,unacceptable,0,0,original_seta,0.2722670435905456,1.2387375831604004,0.1396795064210891,-0.3330071568489074,-0.002297808881849,0.3739862143993377,0.0217035412788391,0.2705972492694855,0.2916171252727508,1.5638445615768433,0.1780845075845718,-0.4308745861053467,0.05543177947402,0.2646437287330627,0.012738587334752,0.2943235337734222,0.387451022863388,1.9455361366271973,0.2408010065555572,-0.5013363361358643,0.0387946143746376,0.3632416129112243,0.0232922192662954,0.3827991783618927,0.204228788614273,0.9387527704238892,0.1275582611560821,-0.2130843997001648,-0.0509875193238258,0.3291245102882385,0.0133925657719373,0.2072202712297439,0.3017654120922088,1.488555908203125,0.1632307916879654,-0.311640202999115,-0.0216377489268779,0.3932755589485168,0.0215807911008596,0.2973368167877197,0.314974695444107,1.700247287750244,0.2270717173814773,-0.3725000619888305,0.0410462468862533,0.2786471545696258,0.0153540018945932,0.3137214779853821,0.2707024812698364,1.3029849529266355,0.154956504702568,-0.2591781318187713,-0.0573003441095352,0.4264761209487915,0.0134936785325407,0.2715176343917846,0.5116170644760132,2.390213966369629,0.3834265172481537,-0.5983029007911682,0.0118438713252544,0.6339859366416931,0.0345642156898975,0.5022620558738708,79.9891586303711,0.0,0.0,-80.0000228881836,-80.0000228881836,-80.0000228881836,9.550880432128906,10.341711044311523,0.4994640648365021,2.309610366821289,0.2933002412319183,-0.6617346405982971,0.0205403454601764,0.6138916015625,0.0287876520305871,0.4972371757030487,0.2342940717935562,1.147111177444458,0.1793847233057022,-0.3746170997619629,0.0369416549801826,0.2466350346803665,0.0180109646171331,0.2362251877784729,20.8017578125,87.16180419921875,0.6861437559127808,-1.5026551485061646,-0.3502309322357178,1.5005788803100586,8.488935470581055,15.557123184204102,0.3083700537681579,1.526200294494629,0.178734615445137,0.0216421671211719,0.3055291473865509,-0.0425461754202842,0.5539645008966122,original unacceptable,-4.59574668260446,0.01277273941311744
r00163,1327659,1327659,train,unacceptable,0,0,original_seta,79.9891586303711,0.0,0.0,-80.0000228881836,-80.0000228881836,-80.0000228881836,9.550880432128906,10.341711044311523,79.9891586303711,0.0,0.0,-80.0000228881836,-80.0000228881836,-80.0000228881836,9.550880432128906,10.341711044311523,0.0,0.0,0.0,0.0,0.0,0.0,0.0,0.0,79.9891586303711,0.0,0.0,80.0000228881836,80.0000228881836,80.0000228881836,9.550880432128906,10.341711044311523,39.99457931518555,0.0,0.0,-40.0000114440918,-40.0000114440918,-40.0000114440918,4.775440216064453,5.170855522155762,39.99457931518555,0.0,0.0,-40.0000114440918,-40.0000114440918,-40.0000114440918,4.775440216064453,5.170855522155762,79.9891586303711,0.0,0.0,-80.0000228881836,-80.0000228881836,-80.0000228881836,9.550880432128906,10.341711044311523,79.9891586303711,0.0,0.0,-80.0000228881836,-80.0000228881836,-80.0000228881836,9.550880432128906,10.341711044311523,79.9891586303711,0.0,0.0,-80.0000228881836,-80.0000228881836,-80.0000228881836,9.550880432128906,10.341711044311523,79.9891586303711,0.0,0.0,-80.0000228881836,-80.0000228881836,-80.0000228881836,9.550880432128906,10.341711044311523,79.9891586303711,0.0,0.0,-80.0000228881836,-80.0000228881836,-80.0000228881836,9.550880432128906,10.341711044311523,79.9891586303711,0.0,0.0,-80.0000228881836,-80.0000228881836,-80.0000228881836,9.550880432128906,10.341711044311523,79.9891586303711,0.0,0.0,9.550880432128906,10.341711044311523,0.6368899345397949,1.0177469400908588,original unacceptable,9.493092946138832,-2.889849349410723
r00167,1337378,1337378,train,unacceptable,0,0,original_seta,0.0728959515690803,0.46057790517807,0.1010752916336059,-0.0485249646008014,-0.0150639368221163,0.0833454132080078,0.0045045861043035,0.074193887412548,0.1149792894721031,0.7168712615966797,0.1416071057319641,-0.0639592632651329,-0.0278230421245098,0.0951171517372131,0.0064588203094899,0.1167551130056381,0.0834721773862838,0.6015608310699463,0.0459998063743114,-0.0405231080949306,-0.0126381404697895,0.021840713918209,0.0040432983078062,0.0838935449719429,0.0861420482397079,0.5398796796798706,0.1184801906347274,-0.0888087749481201,0.0202659964561462,0.0523734278976917,0.005124949850142,0.0877092033624649,0.0531305857002735,0.3919134736061096,0.068285197019577,-0.023649800568819,0.0010988219873979,0.046251080930233,0.0027759710792452,0.0533619411289691,0.0933814272284507,0.6381699442863464,0.0823582112789154,-0.0472900457680225,-0.0186807885766029,0.0510606430470943,0.0048728534020483,0.094384104013443,11.328063011169434,80.63323211669922,0.8029491305351257,-0.1697079241275787,0.0289641544222831,0.2041012495756149,2.5066819190979004,10.425451278686523,0.1000339388847351,0.7061172127723694,0.0783102810382843,-0.0315934270620346,0.0212833993136882,0.0708445459604263,0.0058802226558327,0.101014107465744,0.1592859774827957,1.1338493824005127,0.1472082585096359,-0.0579121075570583,-0.0194781627506017,0.1800665855407714,0.0099558550864458,0.1626184433698654,0.1478835791349411,1.0422271490097046,0.1046097204089164,-0.0719722956418991,-0.0305905044078826,0.1771562546491623,0.0098351640626788,0.1508585959672927,0.144890159368515,0.9531492590904236,0.0986920893192291,-0.0717781260609626,-0.0380064584314823,0.1510610878467559,0.008543218486011,0.1477088183164596,0.1202493384480476,0.7611377239227295,0.1271257251501083,-0.0587373785674572,-0.0294565297663211,0.1146384552121162,0.0070747253485023,0.122385486960411,0.1075066179037094,0.7114942073822021,0.1028425097465515,0.0061695212498307,0.108884610235691,0.1395061016082763,0.0234806769865301,original unacceptable,-6.1347897225394155,-0.5313533926110077
r00172,1347106,1347106,train,unacceptable,0,0,original_seta,0.2272630929946899,1.355926513671875,0.2395796775817871,-0.1052950471639633,-0.0444856397807598,0.0205783359706401,0.0064380327239632,0.2254101037979126,0.1620288789272308,1.033513069152832,0.1036174967885017,-0.0867076814174652,-0.0393305718898773,0.1959042698144912,0.0066042314283549,0.160765141248703,0.2380602359771728,1.6737010478973389,0.223220869898796,-0.0595020018517971,0.0044607855379581,0.2182969897985458,0.0097540421411395,0.2362437844276428,0.1568179130554199,0.97252357006073,0.1525420397520065,-0.079841710627079,0.0372041836380958,0.0736392065882682,0.0043648364953696,0.1555075794458389,0.2182479202747345,1.4715139865875244,0.2473731935024261,-0.1393214166164398,-0.0239873230457305,0.0395844094455242,0.0076407510787248,0.2165226638317108,0.1692122966051101,1.1743534803390503,0.1569784879684448,-0.0684667229652404,-0.0161906816065311,0.2145960628986358,0.0077315680682659,0.1679343581199646,6.736682891845703,37.66192626953125,5.632645606994629,-6.857614517211914,-0.2053635567426681,9.076292037963867,1.0517299175262451,6.841318130493164,0.1377010494470596,0.8648752570152283,0.0978934317827224,-0.0250163078308105,0.0418850108981132,0.0836636945605278,0.0075268968939781,0.1355925798416137,0.4123837649822235,2.64813232421875,0.3127584457397461,-0.1122073680162429,0.0470236614346504,0.3866309821605682,0.0312570296227932,0.4074234962463379,0.2419222146272659,1.568284511566162,0.2145443707704544,-0.1254006475210189,-0.0144689083099365,0.3207791447639465,0.0127075035125017,0.2390510439872741,0.2072019726037979,1.376751184463501,0.1841587573289871,-0.08957539498806,-0.0348782539367675,0.3165901899337768,0.0067195785231888,0.2056051045656204,0.1985130757093429,1.404711127281189,0.1669329106807708,-0.0871795639395713,-0.0383207350969314,0.2611183226108551,0.0072459429502487,0.1971727013587951,0.2127249538898468,1.3907310962677002,0.1993515640497207,0.0075838239863514,0.2110638916492462,0.091618962585926,0.7731308711551468,original unacceptable,-6.451240652750165,0.22516604382730085
r00178,1354265,1354265,train,unacceptable,0,0,original_seta,4.670872211456299,22.36805725097656,2.6331067085266118,-0.6457700729370117,-0.0524216443300247,0.294709712266922,0.7506861090660095,4.6307759284973145,0.0700308457016944,0.3854551613330841,0.1157809123396873,-0.0654232054948806,0.001716440776363,0.0783678218722343,0.0030650754924863,0.0694407299160957,4.645502090454102,22.18456649780273,2.632344007492065,-0.155493676662445,0.0364603698253631,0.6283926367759705,0.7498363256454468,4.605459213256836,2.348353147506714,11.275789260864258,1.317895531654358,-0.1788165122270584,0.0362577512860298,0.325482577085495,0.3759359121322632,2.3281705379486084,4.657925128936768,22.28304100036621,2.6330177783966064,-0.632881224155426,-0.0406398102641105,0.2273084819316864,0.7502604126930237,4.617852210998535,2.3107244968414307,10.99332046508789,1.3260997533798218,-0.0721370428800582,0.0272994078695774,0.3244519233703613,0.3743720650672912,2.2908120155334477,1.5271174907684326,7.617412567138672,0.9095388650894164,-0.0566320791840553,0.0685537680983543,0.7410622835159302,0.1073573008179664,1.5442447662353516,1.5379704236984253,7.773585796356201,1.022191882133484,-0.1973319500684738,0.0858041569590568,0.875848650932312,0.1152927428483963,1.55721914768219,1.5473159551620483,8.731955528259277,0.9497936964035034,-0.2856747508049011,0.068452775478363,0.7326731085777283,0.1155400350689888,1.568433165550232,1.5227223634719849,7.532045841217041,0.8808353543281555,-0.0903300195932388,0.0709208548069,0.7474521994590759,0.1045443788170814,1.5391740798950195,1.5183744430541992,7.5319504737854,0.8847976326942444,-0.0666438341140747,0.054367572069168,0.7416086792945862,0.109378345310688,1.534865379333496,1.517969012260437,7.554225444793701,0.8805540204048157,-0.0506556555628776,0.0580716207623481,0.7451947927474976,0.106302335858345,1.5347758531570437,1.5426431894302368,8.25277042388916,0.9859927892684937,0.1154163926839828,1.562826156616211,0.2467001080513,0.7878769472625788,original unacceptable,-5.752802194187904,6.448158408613826
r00180,1355055,1355055,train,unacceptable,0,0,original_seta,2.463119506835937,18.574838638305664,0.2529421746730804,-0.7335411310195923,0.1062133610248565,1.3684065341949463,0.4820492565631866,2.486137628555298,2.434557676315308,18.573204040527344,0.2029690891504287,-0.2297414243221283,0.0693791434168815,1.3460195064544678,0.478389024734497,2.461068868637085,0.3266436159610748,2.540764808654785,0.0912958160042762,-0.1674501895904541,0.0159767512232065,0.2224942445755005,0.0481484495103359,0.3238017559051513,2.4429948329925537,18.571338653564453,0.2191212922334671,-1.3195152282714844,-0.0999567955732345,0.481180727481842,0.4795085489749908,2.467928647994995,1.266589641571045,9.295634269714355,0.162873774766922,-0.5367920398712158,0.0467703007161617,0.800225019454956,0.2451468706130981,1.2758852243423462,1.224521517753601,9.28199863433838,0.1160894855856895,-0.3135915398597717,0.0661007016897201,0.6806739568710327,0.239700898528099,1.2389296293258667,1.0509732961654663,7.436711311340332,0.1786573380231857,-0.57206130027771,0.0394941680133342,0.7589235901832581,0.1799440830945968,1.0748337507247925,1.2795524597167969,9.015653610229492,0.3720765113830566,-0.9363851547241212,0.0496913306415081,0.9258913993835448,0.1874576807022094,1.2768206596374512,0.8572777509689331,6.316047668457031,0.183102548122406,-0.3432300090789795,0.064200684428215,0.5319768190383911,0.1749491393566131,0.8679338097572327,0.873798668384552,6.280367851257324,0.1781417280435562,-0.483607679605484,0.0738518610596656,0.6243215799331665,0.1676065176725387,0.8848149180412292,0.943995714187622,6.705127716064453,0.1814673691987991,-0.5951817631721497,0.0538080930709838,0.826205313205719,0.1693862378597259,0.9612861275672911,1.8282347917556765,11.963313102722168,0.2138685137033462,-1.3771010637283323,0.0241870153695344,0.5751004219055176,0.2524740993976593,1.8498808145523071,1.2455556392669678,9.148826599121094,0.1822849512100219,0.2135792970657348,1.2574074268341064,0.3813685178756714,1.3166339653736838,original unacceptable,-5.61963499305027,0.7135150248840193
r00181,1356379,1356379,train,unacceptable,0,0,original_seta,0.1583886295557022,0.8968644738197327,0.2875102162361145,-0.1087205857038497,-0.0328235812485218,0.0861477851867675,0.0065394304692745,0.1581300944089889,0.1063745990395546,0.589936375617981,0.1490459740161895,-0.1163142099976539,-0.0003217288467567,0.121404156088829,0.0063487328588962,0.1057213768362999,0.1186739802360534,0.7413612604141235,0.2572552263736725,-0.0875801220536232,0.0206438843160867,0.1034162268042564,0.0064384615980088,0.1185279488563537,0.1204328015446662,0.6669086217880249,0.1834929436445236,-0.0991456136107444,0.0160728264600038,0.1027287393808364,0.0055465586483478,0.1200116425752639,0.1292804777622223,0.7592269778251648,0.2628580331802368,-0.0835739076137542,-0.0279616136103868,0.0617688335478305,0.005681702401489,0.1291899979114532,0.0801201164722442,0.4268242716789245,0.1523927152156829,-0.0917119607329368,0.0069947554729878,0.0963094979524612,0.005492587108165,0.079682670533657,0.2088405042886734,1.1267699003219604,0.3071193099021911,-0.1360852867364883,0.0599135756492614,0.1653527915477752,0.0047697452828288,0.2086416184902191,0.390970379114151,2.4741454124450684,0.6987834572792053,-0.2563128471374511,-0.0947021543979644,0.547939121723175,0.0084784533828496,0.3903933465480804,0.3451230823993683,2.101961612701416,0.6291564702987671,-0.2975043952465057,-0.0361919403076171,0.3814069032669067,0.0304307173937559,0.3440194725990295,19.15062522888184,81.58369445800781,0.6208131313323975,-0.4033031463623047,-0.0368509143590927,0.2560155391693115,7.258628368377685,14.908353805541992,0.1692222207784652,1.1603777408599854,0.4019244611263275,-0.0996340736746788,-0.0207770280539989,0.0779294818639755,0.0062311897054314,0.1687803864479065,0.1228726729750633,0.7074766159057617,0.240857645869255,-0.0816205665469169,-0.0188858285546302,0.0755815729498863,0.0044674612581729,0.1226647496223449,0.1438345611095428,0.8280457258224487,0.2751841247081756,0.0062899612821638,0.1436600387096405,0.0764039382338523,0.1863188760258897,original unacceptable,-6.111621179749965,0.6149558946666803
r00185,1363712,1363712,train,unacceptable,0,0,original_seta,79.9696273803711,0.0,0.0,-79.98001098632812,-79.98001098632812,-79.98001098632812,9.548506736755373,10.33912181854248,79.9086685180664,0.0,0.0,-79.91998291015625,-79.91998291015625,-79.91998291015625,9.541388511657717,10.331360816955566,0.0599915385246276,0.0,0.0,0.0599999912083148,0.0599999912083148,0.0599999912083148,0.0071631432510912,0.0077562783844769,79.93914794921875,0.0,0.0,79.94999694824219,79.94999694824219,79.94999694824219,9.544881820678713,10.335241317749023,40.01478576660156,0.0,0.0,-40.01999282836914,-40.01999282836914,-40.01999282836914,4.777871131896973,5.17343807220459,39.92432022094727,0.0,0.0,-39.92999267578125,-39.92999267578125,-39.92999267578125,4.767057418823242,5.16180419921875,79.9696273803711,0.0,0.0,-79.98001098632812,-79.98001098632812,-79.98001098632812,9.548506736755373,10.33912181854248,79.9696273803711,0.0,0.0,-79.98001098632812,-79.98001098632812,-79.98001098632812,9.548506736755373,10.33912181854248,79.9696273803711,0.0,0.0,-79.98001098632812,-79.98001098632812,-79.98001098632812,9.548506736755373,10.33912181854248,79.9696273803711,0.0,0.0,-79.98001098632812,-79.98001098632812,-79.98001098632812,9.548506736755373,10.33912181854248,79.9696273803711,0.0,0.0,-79.98001098632812,-79.98001098632812,-79.98001098632812,9.548506736755373,10.33912181854248,79.9696273803711,0.0,0.0,-79.98001098632812,-79.98001098632812,-79.98001098632812,9.548506736755373,10.33912181854248,79.9696273803711,0.0,0.0,9.548506736755373,10.33912181854248,0.3942545652389526,1.0188301163976328,original unacceptable,9.367270788794507,-2.806248672793585
r00195,1377360,1377360,train,unacceptable,0,0,original_seta,71.05481719970703,82.41078186035156,0.0645712614059448,-80.04593658447266,-80.0000228881836,-0.1093508452177047,28.925220489501957,12.879199028015137,79.9891586303711,0.0,0.0,-80.0000228881836,-80.0000228881836,-80.0000228881836,9.550880432128906,10.341711044311523,36.91305923461914,82.4525375366211,0.0582000203430652,-79.85653686523438,0.0,0.0400562062859535,25.533313751220703,12.910783767700195,73.36802673339844,41.22141647338867,0.0367889180779457,40.0713005065918,80.0000228881836,80.02259826660156,17.34833526611328,9.73346710205078,40.07640075683594,82.43028259277344,0.0721450671553611,-40.04591751098633,-40.0000114440918,39.88296127319336,26.860820770263672,11.812846183776855,51.16852951049805,41.23543930053711,0.0367217771708965,-79.92768859863281,-40.0000114440918,-39.9766845703125,12.744271278381348,9.764947891235352,79.9891586303711,0.0,0.0,-80.0000228881836,-80.0000228881836,-80.0000228881836,9.550880432128906,10.341711044311523,79.9891586303711,0.0,0.0,-80.0000228881836,-80.0000228881836,-80.0000228881836,9.550880432128906,10.341711044311523,79.9891586303711,0.0,0.0,-80.0000228881836,-80.0000228881836,-80.0000228881836,9.550880432128906,10.341711044311523,79.9891586303711,0.0,0.0,-80.0000228881836,-80.0000228881836,-80.0000228881836,9.550880432128906,10.341711044311523,79.9891586303711,0.0,0.0,-80.0000228881836,-80.0000228881836,-80.0000228881836,9.550880432128906,10.341711044311523,79.9891586303711,0.0,0.0,-80.0000228881836,-80.0000228881836,-80.0000228881836,9.550880432128906,10.341711044311523,79.9891586303711,0.0,0.0,9.550880432128906,10.341711044311523,0.2918528318405151,1.126904247899874,original unacceptable,11.70754813903297,4.694342482931151
r00207,1408675,1408675,train,unacceptable,0,0,original_seta,77.06351470947266,80.91617584228516,0.0839230790734291,-80.21997833251953,-80.19998168945312,-80.00398254394531,17.06304168701172,19.108177185058597,76.989990234375,80.58233642578125,0.0639437586069107,-80.14000701904297,-80.1199951171875,-79.97998046875,17.032087326049805,19.068283081054688,0.113945685327053,0.34030282497406,0.0153481354936957,0.0395054407417774,0.0800000131130218,0.0800056234002113,0.0323009639978408,0.090264618396759,77.02677154541016,80.72766876220703,0.0632526725530624,79.99169921875,80.1600112915039,80.17999267578125,17.04741668701172,19.087995529174805,38.5683708190918,40.66710662841797,0.0594986602663993,-40.149993896484375,-40.14001083374024,-40.01420974731445,8.547054290771484,9.57408046722412,38.45866394042969,40.202735900878906,0.0429822318255901,-40.04000854492188,-40.01999282836914,-39.97486114501953,8.500326156616211,9.514223098754885,77.15885925292969,80.51984405517578,0.1191419661045074,-80.02013397216797,-80.01986694335938,-80.0000228881836,16.23845863342285,19.35389709472656,77.90691375732422,98.97331237792967,0.9663062691688538,-81.47000885009766,-79.96001434326172,-79.96001434326172,15.399569511413574,21.44576072692871,76.85721588134766,80.49981689453125,0.133865013718605,-79.98001098632812,-79.98001098632812,-79.86024475097656,16.976930618286133,19.02199935913086,76.88268280029297,80.61860656738281,0.1162983477115631,-80.01998901367188,-80.0000228881836,-79.87997436523438,16.98351287841797,19.028717041015625,76.89395904541016,80.69841766357422,0.1092075183987617,-80.03998565673828,-80.01998901367188,-79.8005142211914,16.996692657470703,19.027647018432617,77.0809326171875,81.18622589111328,0.0950374081730842,-80.21998596191406,-80.19998168945312,-80.17999267578125,17.0329647064209,19.12358856201172,76.94197082519531,80.60047149658203,0.0894802436232566,16.980220794677734,19.04850006103516,0.4331547319889068,1.2077478695233257,original unacceptable,14.104964396617582,7.8854131383673405
r00212,1421230,1421230,train,unacceptable,0,0,original_seta,0.1351629942655563,0.8007850050926208,0.0596735663712024,-0.0640442222356796,-0.0424337834119796,0.1520974785089492,0.0061645326204597,0.1330577135086059,0.1177714020013809,0.6896896362304688,0.0634382739663124,-0.067159928381443,-0.0365104898810386,0.1482744216918945,0.0063708815723657,0.1160897240042686,0.0373492203652858,0.2275874614715576,0.0484890639781951,-0.0356303788721561,0.0021298769861459,0.0346512161195278,0.0050835241563618,0.0363733805716037,0.1246818155050277,0.7563049793243408,0.0559031330049037,-0.1496197283267974,0.0384672470390796,0.0611881092190742,0.0057025626301765,0.1228363886475563,0.0792608857154846,0.4816381335258484,0.0482484474778175,-0.0417157039046287,-0.0207372196018695,0.082496702671051,0.004705052357167,0.0778644457459449,0.0547952614724636,0.2912483513355255,0.0373574048280715,-0.0404766425490379,-0.0132425427436828,0.0704355016350746,0.0048733102157711,0.0539505071938037,1.745680570602417,10.213875770568848,0.3266153633594513,-1.678638935089111,-0.0407881140708923,2.433267831802368,0.566096305847168,1.5133554935455322,0.1387858688831329,1.122671127319336,0.1533059626817703,-0.0544337071478366,0.0019225985743105,0.1151302382349968,0.0120135238394141,0.1366718411445617,0.0980473756790161,0.8228275179862976,0.1386575251817703,-0.0437458381056785,-0.011289526708424,0.0916518419981002,0.0041032065637409,0.0972072184085846,0.136810690164566,0.8584775328636169,0.0682901069521904,-0.0744249150156974,-0.0378419533371925,0.1520865261554718,0.0090062543749809,0.134953498840332,0.1589496433734893,0.9382070302963256,0.0831847935914993,-0.0788663923740387,-0.0466569736599922,0.1700062900781631,0.0083481166511774,0.1566716879606247,0.157846063375473,0.9847679138183594,0.067997969686985,-0.0800935998558998,-0.0435926243662834,0.182397648692131,0.0086981784552335,0.1553379893302917,0.129922404885292,0.8118062615394592,0.0657181218266487,0.0062677068635821,0.1279470473527908,0.2411848306655883,0.7227323399245964,original unacceptable,-6.315667551753225,-1.1891800347285697
r00220,1436962,1436962,train,unacceptable,0,0,original_seta,0.1823226809501648,1.0396101474761963,0.0962046012282371,-0.0944090262055397,-0.0623010881245136,0.210856094956398,0.0149825466796755,0.1878047734498977,0.0713441297411918,0.4196696877479553,0.075363889336586,-0.0486284010112285,-0.002894930075854,0.0939621999859809,0.0072417394258081,0.0717092454433441,0.1242743730545044,0.6831990480422974,0.0905548483133316,-0.1301530748605728,0.0460219867527484,0.0849240273237228,0.0097740301862359,0.1276798546314239,0.1230988949537277,0.6916309595108032,0.0733546987175941,-0.1582169532775879,0.0311691351234912,0.0643022507429122,0.0106089385226368,0.1263025254011154,0.1515471041202545,0.8093965649604797,0.0885143280029296,-0.0834956690669059,-0.0549089796841144,0.1636646091938018,0.0120663503184914,0.1561493277549743,0.0446512624621391,0.2197566628456115,0.0674175545573234,-0.0378816239535808,0.0183612313121557,0.0535397604107856,0.0042449464090168,0.0440058335661888,5.393308162689209,38.62296676635742,1.3132644891738892,-4.338262557983398,0.0600761920213699,0.2298258543014526,0.9484794735908508,5.4766621589660645,0.1916313618421554,1.3276629447937012,0.1860319525003433,-0.0615386292338371,0.0021587451919913,0.1454676985740661,0.0114604188129305,0.1940408796072006,0.0938223823904991,0.7028831243515015,0.1083014160394668,-0.0456442646682262,0.0228399205952882,0.0598207004368305,0.0046416223049163,0.0937756448984146,0.0706842020153999,0.5996240973472595,0.0907723978161811,-0.0282024797052145,0.0070940339937806,0.0542406477034091,0.0070022651925683,0.0695813000202179,0.0779805406928062,0.525765597820282,0.0466708056628704,-0.0457052886486053,-0.0191414188593626,0.0812667459249496,0.0077786529436707,0.0798751413822174,0.0746243819594383,0.4344441592693329,0.0444065146148204,-0.0439325533807277,-0.0237476211041212,0.089949756860733,0.0069160955026745,0.0773659572005271,0.1084606349468231,0.6874150037765503,0.0895345881581306,0.0087763415649533,0.110039085149765,0.0620051212608814,0.2950419040934338,original unacceptable,-6.319318636706695,-0.836086149888852
r00227,1452192,1452192,train,unacceptable,0,0,original_seta,0.0,0.0,0.0,0.0,0.0,0.0,0.0,0.0,0.0,0.0,0.0,0.0,0.0,0.0,0.0,0.0,0.0,0.0,0.0,0.0,0.0,0.0,0.0,0.0,0.0,0.0,0.0,0.0,0.0,0.0,0.0,0.0,0.0,0.0,0.0,0.0,0.0,0.0,0.0,0.0,0.0,0.0,0.0,0.0,0.0,0.0,0.0,0.0,0.0,0.0,0.0,0.0,0.0,0.0,0.0,0.0,0.0,0.0,0.0,0.0,0.0,0.0,0.0,0.0,0.0,0.0,0.0,0.0,0.0,0.0,0.0,0.0,0.0,0.0,0.0,0.0,0.0,0.0,0.0,0.0,0.0,0.0,0.0,0.0,0.0,0.0,0.0,0.0,0.0,0.0,0.0,0.0,0.0,0.0,0.0,0.0,0.0,0.0,0.0,0.0,0.0,0.0,-0.0,original unacceptable,-6.474622513313227,-1.7782145636137499
r00232,1454865,1454865,train,unacceptable,0,0,original_seta,0.0730709731578826,0.447002112865448,0.0832838118076324,-0.0707876682281494,0.0040337210521101,0.0810229778289794,0.0139669068157672,0.0730590596795082,0.0951133891940116,0.4588019847869873,0.0944126099348068,-0.1327132731676101,0.0187680721282959,0.1016184389591217,0.0150853293016552,0.0925191268324852,0.0971871837973594,0.4917511940002441,0.0860679522156715,-0.1184652373194694,0.0229956619441509,0.0857086777687072,0.0119106722995638,0.0950673148036003,0.0686487853527069,0.4185867309570312,0.0752845034003257,-0.0733960047364234,-0.009201911278069,0.0634062811732292,0.0131600275635719,0.0676379427313804,0.0718422159552574,0.4135802090167999,0.0720157623291015,-0.0677924901247024,-0.0099620651453733,0.0784845724701881,0.0105481967329978,0.0712450742721557,0.0890047773718833,0.4512017369270324,0.08204335719347,-0.1110376864671707,0.0186958387494087,0.0908989384770393,0.0116682816296815,0.0864533558487892,0.1284134238958358,0.5433998107910156,0.0580968335270881,-0.1121380552649498,-0.0194345805794,0.1538694202899933,0.0106702297925949,0.1306122541427612,0.4055962860584259,1.912461757659912,0.36355721950531,-0.5435435175895691,0.0882036685943603,0.3505363762378692,0.0149505995213985,0.401750773191452,0.1021803319454193,0.4995630383491516,0.0817265957593917,-0.1392614543437957,0.0282352548092603,0.0985592305660247,0.0078163743019104,0.1003329306840896,0.0808034092187881,0.3913967907428741,0.0668589100241661,-0.0953552573919296,0.0218407213687896,0.0840697139501571,0.0072545828297734,0.0789420455694198,0.0692269280552864,0.3314698040485382,0.0648256763815879,-0.073380671441555,0.0133060105144977,0.0824379250407219,0.0079599944874644,0.0673695132136344,0.0542873926460742,0.2570711076259613,0.0682003572583198,-0.0576649904251098,0.0119920540601015,0.0722420960664749,0.0058810422196984,0.0526010245084762,0.0849040895700454,0.4491019248962402,0.0785055458545684,0.0111692557111382,0.0826977044343948,0.2352321892976761,1.6344116776294668,original unacceptable,-6.356630263582908,-1.0824261643005135
r00233,1463775,1463775,train,unacceptable,0,0,original_seta,0.1232290044426918,0.7162473201751709,0.0856063440442085,-0.0668803304433822,-0.0332930535078048,0.1727820932865142,0.0086397165432572,0.1257483661174774,0.1080187335610389,0.5855973958969116,0.0586372129619121,-0.0710374861955642,-0.0237626861780881,0.1524314731359481,0.0092608835548162,0.1100996658205986,0.0423722937703132,0.3130389153957367,0.0475018918514251,-0.0321757905185222,0.0034387847408652,0.0295326188206672,0.0030263734515756,0.0427730605006217,0.1132657825946807,0.5903141498565674,0.0626203268766403,-0.1531761437654495,0.0295030437409877,0.0649152249097824,0.0087514976039528,0.1155165433883667,0.0741495862603187,0.4729775488376617,0.0555826239287853,-0.0413606278598308,-0.0168018974363803,0.0885473117232322,0.0044845580123364,0.0755481645464897,0.0537535697221756,0.2733676731586456,0.0485205501317977,-0.0415313877165317,-0.0082987342029809,0.0698686018586158,0.0053148185834288,0.0544978715479373,0.4668841361999511,2.421171188354492,0.2112607508897781,-0.5826421976089478,-0.007488643284887,0.5582151412963867,0.104201927781105,0.4698295295238495,0.2559886872768402,1.7798941135406494,0.2249727249145507,-0.0949499383568763,-0.0247579794377088,0.2456592768430709,0.0155460834503173,0.2658499777317047,0.2009720355272293,1.371118187904358,0.1657243221998214,-0.1021213233470916,-0.0293817594647407,0.2560976147651672,0.0130788087844848,0.2083761096000671,5.983857154846191,38.63379287719727,0.5605878233909607,-1.8430047035217283,-0.0865217745304107,0.397971361875534,0.7931337356567383,5.999924182891846,0.1576911956071853,0.8786911368370056,0.0733642801642417,-0.0852676108479499,-0.0464971400797367,0.2133999913930893,0.0087885502725839,0.1619572788476944,0.1326029002666473,0.7428856492042542,0.090695708990097,-0.0695324465632438,-0.039601270109415,0.1878086030483245,0.0071120406500995,0.1355644315481186,0.1279159486293792,0.7295664548873901,0.0794853121042251,0.0087700244039297,0.1306563913822174,0.1457329988479614,0.1830499548370957,original unacceptable,-6.24768631708868,-0.9137805460261229
r00240,1480991,1480991,train,unacceptable,0,0,original_seta,0.1192283704876899,0.7487294673919678,0.0985131934285163,-0.0587576851248741,-0.0046611069701612,0.0814103037118911,0.0184260066598653,0.1169129461050033,0.1790415346622467,1.213412880897522,0.1394606679677963,-0.013419066555798,0.052541684359312,0.1244093254208564,0.0229422077536582,0.177976980805397,0.2722930908203125,1.7893397808074951,0.2376317232847213,-0.0454214736819267,0.0633585005998611,0.1230360269546508,0.0143294483423233,0.27663454413414,0.0670588240027427,0.4491059184074402,0.0753292441368103,-0.080975241959095,-0.0224106535315513,0.0239978786557912,0.0192959140986204,0.0588963031768798,0.190553992986679,1.2113219499588013,0.1787172853946685,-0.0842163413763046,-0.0337135680019855,0.0542292036116123,0.0118540553376078,0.1932379752397537,0.222837820649147,1.467468500137329,0.1665010750293731,-0.023089038208127,0.0583501830697059,0.1165968105196952,0.0165512263774871,0.2253963500261306,0.2231000214815139,1.4935895204544067,0.2013955116271972,-0.0573262795805931,0.033249020576477,0.1748165637254715,0.0133520551025867,0.2279256731271743,0.3047512769699096,2.1277670860290527,0.2642306983470917,-0.0425038449466228,0.0235851779580116,0.2568871676921844,0.0178699735552072,0.3133508563041687,0.3363088369369507,1.9167327880859373,0.2239421159029007,-0.1711024492979049,-0.0396082773804664,0.4681466817855835,0.0813631564378738,0.3202425837516784,0.3263819813728332,2.0056467056274414,0.2493790686130523,-0.2162103503942489,0.0206305757164955,0.3276327550411224,0.0273021161556243,0.3356879353523254,19.44761657714844,80.36821746826172,0.1648214608430862,-0.3620374500751495,0.0213904492557048,0.1251158416271209,7.614516735076904,14.855578422546388,78.97925567626953,82.14712524414062,0.2797570824623108,-80.159423828125,-80.0000228881836,-80.0000228881836,9.56898307800293,16.23531150817871,0.2476965487003326,1.6414647102355957,0.1900563985109329,0.0188609603792428,0.2522801160812378,0.047139186412096,0.4267116389244814,original unacceptable,-4.420896345554601,0.767751044991321
r00244,1485621,1485621,train,unacceptable,0,0,original_seta,79.9891586303711,0.0,0.0,-80.0000228881836,-80.0000228881836,-80.0000228881836,9.550880432128906,10.341711044311523,79.9891586303711,0.0,0.0,-80.0000228881836,-80.0000228881836,-80.0000228881836,9.550880432128906,10.341711044311523,0.0,0.0,0.0,0.0,0.0,0.0,0.0,0.0,79.9891586303711,0.0,0.0,80.0000228881836,80.0000228881836,80.0000228881836,9.550880432128906,10.341711044311523,39.99457931518555,0.0,0.0,-40.0000114440918,-40.0000114440918,-40.0000114440918,4.775440216064453,5.170855522155762,39.99457931518555,0.0,0.0,-40.0000114440918,-40.0000114440918,-40.0000114440918,4.775440216064453,5.170855522155762,79.9891586303711,0.0,0.0,-80.0000228881836,-80.0000228881836,-80.0000228881836,9.550880432128906,10.341711044311523,79.9891586303711,0.0,0.0,-80.0000228881836,-80.0000228881836,-80.0000228881836,9.550880432128906,10.341711044311523,79.9891586303711,0.0,0.0,-80.0000228881836,-80.0000228881836,-80.0000228881836,9.550880432128906,10.341711044311523,79.9891586303711,0.0,0.0,-80.0000228881836,-80.0000228881836,-80.0000228881836,9.550880432128906,10.341711044311523,79.9891586303711,0.0,0.0,-80.0000228881836,-80.0000228881836,-80.0000228881836,9.550880432128906,10.341711044311523,79.9891586303711,0.0,0.0,-80.0000228881836,-80.0000228881836,-80.0000228881836,9.550880432128906,10.341711044311523,79.9891586303711,0.0,0.0,9.550880432128906,10.341711044311523,0.6368899345397949,1.0177469400908588,original unacceptable,9.493092946138832,-2.889849349410723
r00259,1532215,1532215,train,unacceptable,0,0,original_seta,2.273232698440552,13.103368759155272,0.4059334695339203,-2.3504178524017334,0.0214828588068485,2.073204278945923,0.605379581451416,2.077784299850464,1.9891265630722048,11.28541088104248,0.7161037921905518,-0.5364148616790771,0.1157661229372024,1.5817160606384275,0.5061302185058594,1.882765769958496,1.80913519859314,11.58125114440918,0.3096977770328522,-0.8412411212921143,0.065050333738327,0.755135715007782,0.2799727022647857,1.7936174869537354,1.9343726634979248,11.12000846862793,0.6691896915435791,-1.8595389127731323,-0.0486212708055973,1.5314435958862305,0.5399598479270935,1.7678107023239136,1.7974708080291748,10.871259689331056,0.3921426832675934,-1.8489145040512085,0.0013730671489611,1.3344603776931765,0.3979084491729736,1.6973074674606323,1.524093508720398,9.012580871582031,0.4892486333847046,-1.3042819499969482,0.0735719501972198,1.3282550573349,0.275073230266571,1.5171197652816772,2.311528205871582,16.371246337890625,0.689865231513977,-1.8022284507751465,0.1546086519956588,2.0817959308624268,0.4983739256858825,2.3114051818847656,1.004968285560608,5.940860748291016,0.3405856192111969,-1.0291872024536133,0.0696469694375991,0.8675708770751953,0.2483410388231277,0.9369595646858216,1.6619831323623655,10.65432357788086,0.9453139305114746,-1.7248040437698364,0.1181493550539016,1.562045931816101,0.264453262090683,1.6890634298324585,1.708804726600647,11.875866889953612,0.6197057962417603,-1.7471559047698977,0.0686611384153366,1.125257968902588,0.2271027565002441,1.7793093919754028,1.0579079389572144,5.219597339630127,0.5958696007728577,-1.4539486169815063,0.2402355968952179,1.072493314743042,0.204949289560318,1.0108586549758911,2.9624831676483154,16.236095428466797,1.7621567249298096,-3.068801164627075,-0.0465184897184371,3.796178340911865,0.4831346571445465,2.9963152408599854,1.8033030033111568,11.202709197998049,0.6077877283096313,0.3389405608177185,1.7735600471496582,0.0240889880806207,2.4271019370048315,original unacceptable,-5.913975001447503,3.2130252238618806
r00265,1553541,1553541,train,unacceptable,0,0,original_seta,0.1667918860912323,1.1511443853378296,0.0955015942454338,-0.0459072552621364,0.042445845901966,0.1882357746362686,0.0444944724440574,0.1545261442661285,79.46986389160156,80.37574768066406,0.0156631469726562,-80.1298599243164,-79.96001434326172,-79.96001434326172,9.4115629196167,14.00140380859375,79.51485443115234,80.45348358154297,0.159503161907196,-80.25743103027344,-80.01119995117188,-79.89483642578125,9.397478103637695,14.020917892456056,39.71222305297852,40.4611701965332,0.0850713998079299,39.8873405456543,39.97015380859375,40.03865432739258,4.712822914123535,6.9915618896484375,39.77984619140625,40.2694206237793,0.1550903171300888,39.91892623901367,40.028282165527344,40.209228515625,4.691791534423828,7.021129131317139,79.49292755126953,80.41545104980469,0.0961486771702766,-80.19134521484375,-79.98831176757812,-79.92555236816406,9.404494285583496,14.011041641235352,79.29254150390625,77.17613220214844,0.0089492294937372,-79.91998291015625,-79.80001068115234,-79.80001068115234,9.381060600280762,13.489273071289062,79.47521209716797,77.90100860595703,0.0007598875090479,-80.01998901367188,-80.0000228881836,-80.0000228881836,9.420076370239258,13.558520317077637,79.4581527709961,72.34274291992188,0.0163681004196405,-80.05998992919922,-80.03998565673828,-79.7400894165039,9.43652057647705,13.168312072753906,79.42259216308594,74.0592269897461,0.0156707763671875,-79.98001098632812,-79.98001098632812,-79.81997680664062,9.421171188354492,13.274914741516112,79.48006439208984,77.97570037841797,0.0020751906558871,-80.01998901367188,-80.0000228881836,-80.0000228881836,9.422160148620604,13.56042766571045,79.25829315185547,76.94046783447266,0.0103240963071584,-79.91998291015625,-79.7600326538086,-79.7600326538086,9.372041702270508,13.470261573791504,79.44036865234375,77.05830383300781,0.0160194374620914,9.400985717773438,13.479766845703123,0.2844979166984558,1.1401728462659624,original unacceptable,9.171505169388961,9.578392976744487
r00267,1556297,1556297,train,unacceptable,0,0,original_seta,0.0634040683507919,0.440942108631134,0.0725673586130142,-0.0427612252533435,0.0003032907843589,0.0630059465765953,0.0051726587116718,0.0629166737198829,0.1490269601345062,1.0445090532302856,0.1534245461225509,-0.1362074613571167,-0.0044414857402443,0.1165684163570404,0.013740655966103,0.1503056734800338,0.1179441288113594,0.768639862537384,0.0781276300549507,-0.123104877769947,-0.0045921406708657,0.0829782932996749,0.0107209254056215,0.1180749759078025,0.0974080488085746,0.6580799221992493,0.1180861890316009,-0.0826674848794937,0.0029156408272683,0.0816863030195236,0.0087544908747076,0.0981691852211952,0.0588448718190193,0.4506399035453796,0.0825388729572296,-0.0362853333353996,0.0044675655663013,0.0615281909704208,0.0049541033804416,0.0578913018107414,0.1302819997072219,0.8929159641265869,0.1078319326043129,-0.1258469223976135,-0.0039224475622177,0.0960177779197692,0.0119943739846348,0.1311048120260238,0.0819347202777862,0.5791401267051697,0.0679815560579299,-0.0496131926774978,0.0243321433663368,0.0736416727304458,0.0056955148465931,0.0820098295807838,0.1373591423034668,0.9664905667304992,0.112818144261837,-0.0698959678411483,0.0375022441148757,0.0928556695580482,0.0055824262090027,0.1374274343252182,0.2273962199687957,1.4351160526275637,0.2420107871294021,-0.073497749865055,0.0540083758533,0.1463812589645385,0.0110646821558475,0.2254563719034195,0.1897978335618972,1.459676742553711,0.3178839683532715,-0.091774083673954,0.0161668229848146,0.1549718379974365,0.0093331970274448,0.18849977850914,0.2212873250246048,1.927900075912476,0.3975692391395569,-0.0891526117920875,-0.0232271887362003,0.1099517792463302,0.0092989969998598,0.2196923643350601,69.93267822265625,110.1520538330078,3.225943088531494,-80.19999694824219,-79.97998046875,-1.1058729887008667,22.73241806030273,21.12371253967285,0.1338205635547638,0.9297032356262208,0.1154521703720092,0.0093160970136523,0.134266123175621,0.0033667865209281,0.4637448730704017,original unacceptable,-5.241850466853935,0.4820248582457257
r00271,1568146,1568146,train,unacceptable,0,0,original_seta,0.2615525722503662,1.315908670425415,0.1860007047653198,-0.0534716174006462,0.0980828404426574,0.412045806646347,0.0803035870194435,0.2090596109628677,79.9891586303711,0.0,0.0,-80.0000228881836,-80.0000228881836,-80.0000228881836,9.550880432128906,10.341711044311523,80.12660217285156,1.3488082885742188,0.2460402250289917,-80.41729736328125,-80.10011291503906,-79.94470977783203,9.591073036193848,10.346692085266112,39.92537689208984,0.6813125610351562,0.1205001696944236,39.790565490722656,39.9493522644043,40.0273551940918,4.755534648895264,5.170357704162598,40.13232803344727,1.3403587341308594,0.2260432690382003,39.944705963134766,40.09962463378906,40.41678237915039,4.815871715545654,5.177952766418457,80.05827331542969,0.6933822631835938,0.1250518709421157,-80.20977020263672,-80.05082702636719,-79.97148895263672,9.57102870941162,10.343689918518066,79.9891586303711,0.0,0.0,-80.0000228881836,-80.0000228881836,-80.0000228881836,9.550880432128906,10.341711044311523,79.9891586303711,0.0,0.0,-80.0000228881836,-80.0000228881836,-80.0000228881836,9.550880432128906,10.341711044311523,79.9891586303711,0.0,0.0,-80.0000228881836,-80.0000228881836,-80.0000228881836,9.550880432128906,10.341711044311523,79.9891586303711,0.0,0.0,-80.0000228881836,-80.0000228881836,-80.0000228881836,9.550880432128906,10.341711044311523,79.9891586303711,0.0,0.0,-80.0000228881836,-80.0000228881836,-80.0000228881836,9.550880432128906,10.341711044311523,79.9891586303711,0.0,0.0,-80.0000228881836,-80.0000228881836,-80.0000228881836,9.550880432128906,10.341711044311523,79.9891586303711,0.0,0.0,9.550880432128906,10.341711044311523,0.2947055995464325,0.817314795933444,original unacceptable,7.375568825749627,1.0933101563918017
r00287,1607439,1607439,train,unacceptable,0,0,original_seta,0.2573035955429077,1.2751262187957764,0.1564282476902008,-0.2503508925437927,-0.0751473009586334,0.4017492830753326,0.0332546457648277,0.2602841258049011,0.0933411419391632,0.4197834730148315,0.0797083675861358,-0.1073383539915084,-0.0054050236940383,0.1366767883300781,0.0100165270268917,0.0937587693333625,0.2818407416343689,1.4281606674194336,0.1450663954019546,-0.4624693393707275,0.0708534196019172,0.2883008122444153,0.0315190255641937,0.2884440422058105,0.1316370964050293,0.6182969212532043,0.0984719768166542,-0.1850416362285614,0.0318318121135234,0.1279985606670379,0.018714353442192,0.1311483830213546,0.2659538984298706,1.3367094993591309,0.1445236951112747,-0.2551907002925873,-0.0760056152939796,0.4355930984020233,0.0320014767348766,0.2709228694438934,0.1665775179862976,0.8091877102851868,0.0998516157269477,-0.2411352694034576,0.032057799398899,0.1892362684011459,0.0165244434028863,0.1711602360010147,0.3356680870056152,1.538939356803894,0.2222686856985092,-0.5173357129096985,0.0707781910896301,0.3439043164253235,0.0193722397089004,0.3468267917633056,0.5564531087875366,2.534958600997925,0.368618369102478,-0.7312567830085754,0.0468682050704956,0.6333889365196228,0.0319508612155914,0.5766478776931763,0.257641464471817,1.161689043045044,0.1398601979017257,-0.4140676259994507,0.045522429049015,0.3141168355941772,0.0164597872644662,0.2674388885498047,0.1470845341682434,0.6923145651817322,0.0984729975461959,-0.2263348698616027,0.022221028804779,0.2000120878219604,0.011064170859754,0.1514376848936081,0.0974619537591934,0.5370360016822815,0.0761110410094261,-0.0895040184259414,0.0086758527904748,0.1346936970949173,0.0089136455208063,0.0983403101563453,80.08258056640625,0.0602264404296875,0.0001007076352834,-80.1199951171875,-80.10000610351562,-80.08001708984375,9.56125545501709,10.35267162322998,0.2574725151062011,0.985438346862793,0.119855910539627,0.0190432965755462,0.2638615071773529,0.1765544563531875,0.3786050674457347,original unacceptable,-5.0702008625184645,-1.0562629249789761
r00288,1609343,1609343,train,unacceptable,0,0,original_seta,0.1139518693089485,0.7036523818969727,0.113193079829216,-0.0731906816363334,-0.0269174054265022,0.1174402758479118,0.0034113293513655,0.1139742061495781,0.0891257673501968,0.3676866888999939,0.0896337926387786,-0.0923346579074859,-0.0158382561057806,0.1513594388961792,0.0054935407824814,0.0887823104858398,0.1047923490405082,0.633658230304718,0.1254027783870697,-0.0655976608395576,0.0162869580090045,0.0724362879991531,0.0053948280401527,0.105419211089611,0.0870149061083793,0.4643757343292236,0.0940277278423309,-0.130434900522232,0.0215441174805164,0.0713380649685859,0.0036476806271821,0.0866551026701927,0.0999146550893783,0.6209010481834412,0.1077058389782905,-0.0552057065069675,-0.0191365964710712,0.0553000420331954,0.003608499886468,0.1003342121839523,0.0786602795124054,0.3979089260101318,0.0681454613804817,-0.0816820710897445,-5.200838859309442e-05,0.107300616800785,0.0051801698282361,0.0788715556263923,1.9883437156677248,13.922897338867188,1.2109289169311523,-1.132331132888794,-0.0153549397364258,0.08999615162611,0.2243446260690689,1.9913595914840696,0.2504957616329193,1.65173077583313,0.3782559633255005,-0.0351833403110504,0.024942522868514,0.1969884037971496,0.0080842683091759,0.2509832680225372,0.1658506989479065,1.0025694370269775,0.2099619209766388,-0.0616099275648593,0.0335290357470512,0.1282263845205307,0.009831472299993,0.1654905974864959,0.1612796336412429,1.1458735466003418,0.2230125069618225,-0.074807696044445,-0.0085666328668594,0.1983926594257354,0.0075844856910407,0.1604926139116287,0.1345008015632629,0.83052659034729,0.1449903100728988,-0.1004354581236839,-0.0303317345678806,0.194093257188797,0.0119442036375403,0.1332771182060241,0.0940671488642692,0.4524905681610107,0.090969905257225,-0.0945493876934051,-0.0200714319944381,0.1449056714773178,0.0202246997505426,0.0906566232442855,0.1093721091747284,0.668655276298523,0.1192979291081428,0.006539013236761,0.1096967086195945,0.158296525478363,0.4148424500588958,original unacceptable,-6.413943996456262,-0.8274174855211044
r00291,1610034,1610034,train,unacceptable,0,0,original_seta,34.7141227722168,84.71147918701172,0.3781836032867431,-80.07972717285156,-0.1503311991691589,0.6505406498908997,23.39368438720703,13.006303787231444,1.7793176174163818,9.818652153015137,0.4925818741321563,-2.2864773273468018,-0.1000242829322815,0.4660538136959076,0.8779207468032837,1.26704204082489,33.51506805419922,86.50053405761719,0.6191130876541138,-0.4748311340808868,0.1338614970445633,77.09468078613281,22.531757354736328,12.86643409729004,17.980228424072266,45.93937301635742,0.4106124639511108,-0.5087012052536011,0.1253896653652191,41.17522430419922,12.128254890441896,6.6327996253967285,34.10795593261719,85.20350646972656,0.3973744809627533,-78.56636810302734,-0.1177963539958,0.3817232251167297,22.962312698364254,12.921051025390623,16.184768676757812,44.69598007202149,0.5171324014663696,-0.4818121492862701,0.0960735827684402,37.06612396240234,10.835454940795898,6.4254302978515625,33.848976135253906,81.153076171875,0.3131271004676819,-79.10900115966797,-0.0652298033237457,0.2611198723316192,23.19292259216309,11.198883056640623,34.18422317504883,80.73184204101562,0.4189707338809967,-79.51433563232422,0.0091273700818419,0.3463467955589294,23.326351165771484,11.787967681884766,34.65020751953125,81.1037826538086,0.3593858480453491,-80.0000228881836,0.0489037595689296,0.4237553775310516,23.48152732849121,12.630911827087402,34.699127197265625,81.66419219970703,0.3369697630405426,-80.03987884521484,0.0100265014916658,0.4775130152702331,23.49497604370117,12.723418235778809,34.61788558959961,81.16024017333984,0.3561934530735016,-80.0000228881836,-0.0250832028687,0.400650680065155,23.466745376586918,12.577679634094238,70.75523376464844,106.5470199584961,6.3030877113342285,-80.59310913085938,-80.0000228881836,1.9487943649291992,26.610822677612305,19.582439422607425,34.146087646484375,81.15666198730469,0.4039934873580932,23.25963592529297,12.60429573059082,0.1042945459485054,1.3330349496878275,original unacceptable,6.175284003048195,14.300237899323168
r00301,1636307,1636307,train,unacceptable,0,0,original_seta,79.9891586303711,0.0,0.0,-80.0000228881836,-80.0000228881836,-80.0000228881836,9.550880432128906,10.341711044311523,79.9891586303711,0.0,0.0,-80.0000228881836,-80.0000228881836,-80.0000228881836,9.550880432128906,10.341711044311523,0.0,0.0,0.0,0.0,0.0,0.0,0.0,0.0,79.9891586303711,0.0,0.0,80.0000228881836,80.0000228881836,80.0000228881836,9.550880432128906,10.341711044311523,39.99457931518555,0.0,0.0,-40.0000114440918,-40.0000114440918,-40.0000114440918,4.775440216064453,5.170855522155762,39.99457931518555,0.0,0.0,-40.0000114440918,-40.0000114440918,-40.0000114440918,4.775440216064453,5.170855522155762,79.9891586303711,0.0,0.0,-80.0000228881836,-80.0000228881836,-80.0000228881836,9.550880432128906,10.341711044311523,79.9891586303711,0.0,0.0,-80.0000228881836,-80.0000228881836,-80.0000228881836,9.550880432128906,10.341711044311523,79.9891586303711,0.0,0.0,-80.0000228881836,-80.0000228881836,-80.0000228881836,9.550880432128906,10.341711044311523,79.9891586303711,0.0,0.0,-80.0000228881836,-80.0000228881836,-80.0000228881836,9.550880432128906,10.341711044311523,79.9891586303711,0.0,0.0,-80.0000228881836,-80.0000228881836,-80.0000228881836,9.550880432128906,10.341711044311523,79.9891586303711,0.0,0.0,-80.0000228881836,-80.0000228881836,-80.0000228881836,9.550880432128906,10.341711044311523,79.9891586303711,0.0,0.0,9.550880432128906,10.341711044311523,0.6368899345397949,1.0177469400908588,original unacceptable,9.493092946138832,-2.889849349410723
r00305,1648581,1648581,train,unacceptable,0,0,original_seta,0.1054149568080902,0.5650972127914429,0.0784805938601493,-0.0724969878792762,0.0223661232739686,0.0961594358086586,0.0174447912722826,0.0984996333718299,0.1529282182455063,0.6956609487533569,0.1431864798069,-0.1082031056284904,0.0674902498722076,0.2415679842233657,0.0629492774605751,0.1081927046179771,0.1896048784255981,0.99419367313385,0.144106850028038,-0.1396725177764892,0.0393668264150619,0.2859894633293152,0.0591378174722194,0.1614034622907638,0.0899786800146102,0.3692711591720581,0.0841824933886528,-0.1334259361028671,-0.037871528416872,0.0793084129691124,0.035120416432619,0.0641313418745994,0.1334005892276764,0.7064793109893799,0.0984583348035812,-0.1609275043010711,-0.0061768442392349,0.0947846472263336,0.0304379351437091,0.1225091442465782,0.1640908569097519,0.7999225854873657,0.1333108693361282,-0.1146529763936996,0.0560912638902664,0.2662746012210846,0.0603895597159862,0.1286056935787201,0.0920269712805748,0.4252949059009552,0.1853483170270919,-0.1380269825458526,-0.0153144039213657,0.0979100987315177,0.0198143012821674,0.0876268222928047,0.1112669631838798,0.5523208379745483,0.0904354304075241,-0.1180223003029823,-0.0037381635047495,0.0998034551739692,0.020313873887062,0.1044710949063301,0.1385591328144073,0.7173328399658203,0.1186733469367027,-0.1114483177661895,-0.0019987367559224,0.1063525527715683,0.0195980370044708,0.1320948004722595,0.3752520382404327,1.9421088695526123,0.2283696383237838,-0.2288942188024521,0.0331992395222187,0.3001047372817993,0.030471296980977,0.3631145656108856,0.4054208993911743,2.120661497116089,0.256780058145523,-0.2933814823627472,0.0457234233617782,0.3064584732055664,0.0329005271196365,0.3921517431735992,0.0689382553100586,0.3488804697990417,0.0924563333392143,-0.0963303968310356,-0.0147083401679992,0.0538906343281269,0.0191533528268337,0.0630149245262146,0.1359798610210418,0.7010701298713684,0.1259921044111251,0.0304546169936656,0.1153509244322776,0.0715780407190322,2.29991006064512,original unacceptable,-6.42725676010106,-0.6874372454993506
r00309,1661380,1661380,train,unacceptable,0,0,original_seta,79.9891586303711,0.0,0.0,-80.0000228881836,-80.0000228881836,-80.0000228881836,9.550880432128906,10.341711044311523,79.9891586303711,0.0,0.0,-80.0000228881836,-80.0000228881836,-80.0000228881836,9.550880432128906,10.341711044311523,0.0,0.0,0.0,0.0,0.0,0.0,0.0,0.0,79.9891586303711,0.0,0.0,80.0000228881836,80.0000228881836,80.0000228881836,9.550880432128906,10.341711044311523,39.99457931518555,0.0,0.0,-40.0000114440918,-40.0000114440918,-40.0000114440918,4.775440216064453,5.170855522155762,39.99457931518555,0.0,0.0,-40.0000114440918,-40.0000114440918,-40.0000114440918,4.775440216064453,5.170855522155762,79.9891586303711,0.0,0.0,-80.0000228881836,-80.0000228881836,-80.0000228881836,9.550880432128906,10.341711044311523,79.9891586303711,0.0,0.0,-80.0000228881836,-80.0000228881836,-80.0000228881836,9.550880432128906,10.341711044311523,79.9891586303711,0.0,0.0,-80.0000228881836,-80.0000228881836,-80.0000228881836,9.550880432128906,10.341711044311523,79.9891586303711,0.0,0.0,-80.0000228881836,-80.0000228881836,-80.0000228881836,9.550880432128906,10.341711044311523,79.9891586303711,0.0,0.0,-80.0000228881836,-80.0000228881836,-80.0000228881836,9.550880432128906,10.341711044311523,79.9891586303711,0.0,0.0,-80.0000228881836,-80.0000228881836,-80.0000228881836,9.550880432128906,10.341711044311523,79.9891586303711,0.0,0.0,9.550880432128906,10.341711044311523,0.6368899345397949,1.0177469400908588,original unacceptable,9.493092946138832,-2.889849349410723
r00317,1669522,1669522,train,unacceptable,0,0,original_seta,79.9891586303711,0.0,0.0,-80.0000228881836,-80.0000228881836,-80.0000228881836,9.550880432128906,10.341711044311523,79.9891586303711,0.0,0.0,-80.0000228881836,-80.0000228881836,-80.0000228881836,9.550880432128906,10.341711044311523,0.0,0.0,0.0,0.0,0.0,0.0,0.0,0.0,79.9891586303711,0.0,0.0,80.0000228881836,80.0000228881836,80.0000228881836,9.550880432128906,10.341711044311523,39.99457931518555,0.0,0.0,-40.0000114440918,-40.0000114440918,-40.0000114440918,4.775440216064453,5.170855522155762,39.99457931518555,0.0,0.0,-40.0000114440918,-40.0000114440918,-40.0000114440918,4.775440216064453,5.170855522155762,79.9891586303711,0.0,0.0,-80.0000228881836,-80.0000228881836,-80.0000228881836,9.550880432128906,10.341711044311523,79.9891586303711,0.0,0.0,-80.0000228881836,-80.0000228881836,-80.0000228881836,9.550880432128906,10.341711044311523,79.9891586303711,0.0,0.0,-80.0000228881836,-80.0000228881836,-80.0000228881836,9.550880432128906,10.341711044311523,79.9891586303711,0.0,0.0,-80.0000228881836,-80.0000228881836,-80.0000228881836,9.550880432128906,10.341711044311523,79.9891586303711,0.0,0.0,-80.0000228881836,-80.0000228881836,-80.0000228881836,9.550880432128906,10.341711044311523,79.9891586303711,0.0,0.0,-80.0000228881836,-80.0000228881836,-80.0000228881836,9.550880432128906,10.341711044311523,79.9891586303711,0.0,0.0,9.550880432128906,10.341711044311523,0.6368899345397949,1.0177469400908588,original unacceptable,9.493092946138832,-2.889849349410723
