idx,split,y,class_name,record_id,subject_id,rms,std,ptp_p99_p01,mean_abs,low_amp_ratio,flatline_ratio,contact_loss_win_ratio,local_rms_cv,baseline_step,diff_abs_median,diff_abs_p95,detail_instability,lf_ratio,hf_ratio,qrs_band_ratio,spectral_entropy,qrs_peak_count,aggressive_peak_count,spurious_peak_density,qrs_prom_median,qrs_prom_p90,qrs_width_median,qrs_slope_median,qrs_count_low,qrs_count_high,qrs_count_deviation,periodicity,qrs_visibility,clipping_like_ratio,fatal_or_score,medium_detail_unreliable_score,sqi_iSQI,sqi_bSQI,sqi_pSQI,sqi_sSQI,sqi_kSQI,sqi_fSQI,sqi_basSQI,hjorth_activity,hjorth_mobility,hjorth_complexity,zero_crossing_rate,diff_zero_crossing_rate,sample_entropy_proxy,amplitude_entropy,higuchi_fd_proxy,template_corr,detector_count_std,detector_agreement,rr_count_detector_a,rr_count_detector_b,rr_count_detector_c,non_qrs_rms_ratio,non_qrs_diff_p95,band_0p3_1,band_1_5,band_5_15,band_15_30,band_30_45,wavelet_e0,wavelet_e1,wavelet_e2,wavelet_e3,wavelet_e4,pc1,pc2,pc3,pc4,pc5,pc6,pc7,pc8,pca_own_distance,pca_nearest_other_distance,pca_margin,knn_label_purity,nearest_other_class,is_clean_strict,is_clean_train_target,clean_tier,class_margin_percentile,class_centrality_percentile,ambiguous_type,pca_margin_rank,own_centrality_rank,boundary_confidence,original_region,region_confidence,pred,pred_class,p_good,p_medium,p_bad,correct
26316,test,2,bad,111001,111,0.2088993413372136,0.208127397736894,1.4768154674768446,0.098373428593768,0.456,0.7526020816653323,0.6,1.0725748395622985,2.2015231850490857,0.0010581351816654,0.0411984264850615,3.893456890312455,0.436004077106746,0.0267884520032577,0.132745984407416,0.6340614855855486,13.0,21.0,0.8,0.3019583016643751,5.228576063225798,0.0277958057308871,0.1386319106412689,0.0,0.0,0.1428571428571428,0.7198196123260313,0.0222687511135716,0.0152,1.0,0.0222687511135716,0.0,0.8333333333331945,0.7575875605245134,-2.9909830516736684,18.413947430336407,0.0600480384307446,0.6460146442372879,0.0433170195261834,0.2839156993075323,4.086157345826185,0.0256204963971176,0.1866987179487179,0.1990422651800114,0.567253169325738,1.2344814728835796,0.2116919630924788,2.160246899469287,0.3164309725825327,13.0,12.0,8.0,0.331340715926684,0.0097019374370574,0.436004077106746,0.3977970153042092,0.1196709783594478,0.0396523585840367,0.0068681224603756,0.8941337497739201,0.0716849555797671,0.0251290859921802,0.0075077122850473,0.0015444804957958,-8.043546864327205,15.014140742877286,-4.465471484793656,0.5934623364513197,12.70471930626608,25.4388985779554,8.029365942624654,-15.677979291238051,41.079907764281394,37.27761703344149,-3.802290730839907,0.1,good,False,False,ambiguous_boundary,0.0649006622516556,0.002081362346263,bad_outlier,0.0649006622516556,0.002081362346263,0.0646215704824976,outlier_low_confidence,0.0161553926206244,1,medium,0.17253394,0.5997842,0.22768186,False
26321,test,2,bad,111001,111,0.1888081044515473,0.1887527307542337,1.31982497215271,0.0840239083504449,0.5176,0.7758206565252201,0.7,1.2237724957250682,1.028326378868378,0.0007131730671972,0.0289609730243682,4.060804912010088,0.3651993778024456,0.0092889085885597,0.1062109010981461,0.5936228650679924,11.0,23.0,1.2,0.3397170364711213,5.3565248405077055,0.0270795970298304,0.1442016100225945,0.0,0.0,0.0,0.6682949732222072,0.0164007511645407,0.0152,1.0,0.0164007511645407,0.0,0.2499999999999375,0.826186450465884,-3.478507749534498,21.50240261342762,0.0808646917534027,0.6997136919855933,0.0356275995921257,0.2079323292655753,4.944800256635035,0.0256204963971176,0.2475961538461538,0.2905721238007718,0.4751264377639532,1.1381218220039109,0.4344207445210452,2.6246692913372702,0.275887238151612,11.0,12.0,6.0,0.3099391824453299,0.0124387993477284,0.3651993778024456,0.5164973440356734,0.1001443883323401,0.0148957683530511,0.0032616425716508,0.916979421481688,0.0652860260654435,0.0122225792725369,0.0049195385418016,0.0005924152476306,-8.65839894146662,15.713289366788418,-6.011092723946065,2.078383328461084,14.412479543561926,29.82672660580151,9.254427138602308,-18.471558889268685,46.38838543065696,42.89936832178882,-3.48901710886814,0.1,good,False,False,ambiguous_boundary,0.065279091769158,0.0009460737937559,bad_outlier,0.065279091769158,0.0009460737937559,0.0645648060548722,outlier_low_confidence,0.016141201513718,1,medium,0.17061199,0.59545463,0.23393339,False
26299,test,2,bad,111001,111,0.2693111864227477,0.2683329749308767,1.7391223990917204,0.1022724265112541,0.496,0.7253803042433947,0.6,1.3470169984882598,1.948675195068185,0.0012917900457978,0.0636321544647215,4.925851695989214,0.3148890921608367,0.0223036090446308,0.1781961111449983,0.6985191594610421,15.0,30.0,1.5,0.4203786759451973,4.328380931473058,0.0296498787809341,0.1949763268620377,0.0,0.0,0.2857142857142857,0.6297888426786917,0.029963938104687,0.0152,1.0,0.029963938104687,0.0,0.3636363636363305,0.7463051618499449,-5.238882947087819,45.96047650048537,0.0520416333066453,0.6462765035140916,0.0720025900685951,0.3115962701823043,3.4466523334734127,0.0312249799839871,0.234775641025641,0.1782211890016931,0.4439285214150239,1.2118490986493256,0.2702917501785974,2.0548046676563256,0.3273531727209285,15.0,13.0,10.0,0.3384594650502701,0.0151075631380081,0.3148890921608367,0.4751103274248457,0.162054250976692,0.0414966177077725,0.0064397962747647,0.8632616139813112,0.096160325321082,0.0282474559179581,0.0104290333918911,0.0019015615413032,-8.37538299810074,13.210498854535436,-3.33760391628203,1.2877310558615636,13.243675285482748,25.983732939999324,7.192939463146583,-15.725803953655983,40.91055413163361,36.934600829900376,-3.9759533017332345,0.1,good,False,False,ambiguous_boundary,0.0641438032166509,0.0022705771050141,bad_outlier,0.0641438032166509,0.0022705771050141,0.0643188268684957,outlier_low_confidence,0.0160797067171239,1,medium,0.16393644,0.60233486,0.2337287,False
26320,test,2,bad,111001,111,0.3233991943110376,0.3201797849387017,2.4464024305343623,0.1308075822568731,0.3016,0.8134507606084868,0.7,1.6640808933355584,0.8935131972112714,0.0013674274086952,0.0361791372299194,2.6457618461996564,0.3365738212577251,0.0011472332846291,0.0424943753368738,0.565916646823127,12.0,21.0,0.9,0.4321785191440672,2.046882384942462,0.1357506649587708,0.1950876434702824,0.0,0.0,0.0714285714285714,0.6453823536092552,0.0096658716868643,0.0152,1.0,0.0096658716868643,0.0,0.2222222222221975,0.9305219610063644,-4.839614463461848,35.664519335594925,0.0536429143314651,0.6861323829765136,0.1025150982797976,0.1107151296085408,5.897474484781366,0.0168134507606084,0.2227564102564102,0.223037604942547,0.4890742793221553,1.0815233712513586,0.3739897713264924,2.494438257849294,0.286169028098801,12.0,10.0,6.0,0.238287482024804,0.0092302627861499,0.3365738212577251,0.6193052591249909,0.041703749723995,0.0022105701872369,0.0002048993452987,0.977072735176425,0.0182589205787431,0.0042499429215254,0.0003658548706738,5.254005283364958e-05,-10.232165000852786,15.546274577720215,-3.706668315602178,2.648109727487062,16.066757096229658,29.507917346662577,6.6787179372370975,-20.86939661967367,47.71896259633849,43.806920855304185,-3.912041741034308,0.1,good,False,False,ambiguous_boundary,0.0645222327341532,0.0005676442762535,bad_outlier,0.0645222327341532,0.0005676442762535,0.0641485335856196,outlier_low_confidence,0.0160371333964049,1,medium,0.17750947,0.61632985,0.20616071,False
26319,test,2,bad,111001,111,0.2997816762843654,0.2981185497786535,2.1605132535099982,0.0964375277839484,0.7976,0.8150520416333067,0.7,1.3738706093755273,0.4479610542191256,0.0009654266759753,0.0400809668004512,4.1515894100418205,0.301012713205718,0.0138374692526298,0.114812554999301,0.6430465499651374,11.0,22.0,1.1,0.2453303399645115,7.880100826468198,0.0891340909945192,0.1259782006138963,0.0,0.0,0.0,0.7145157650390479,0.0134128586429393,0.0152,1.0,0.0134128586429393,0.0,0.2499999999999375,0.7800205144075991,-4.886162981019882,32.42247635278637,0.0696557245796637,0.506002470815379,0.0888746737597566,0.2550395516562281,4.1649925380413775,0.0312249799839871,0.235576923076923,0.1483962903516046,0.4121688667090483,1.170005570582611,0.2272975247385705,2.0548046676563256,0.3273531727209285,11.0,13.0,8.0,0.2415503211235594,0.0132895439863204,0.301012713205718,0.5661077707145944,0.1054957584683921,0.0226059138045952,0.0047733623747352,0.8286830694435331,0.1300173623658275,0.0308507973697197,0.0094343131631667,0.0010144497331672,-10.204696327654602,13.603845901533376,-5.0602835221508125,4.096407248324421,14.464347839455831,31.67170078225005,7.739368730636678,-18.79007724562841,47.4737153094658,43.55768130996128,-3.9160339995045135,0.1,good,False,False,ambiguous_boundary,0.064333017975402,0.0007568590350047,bad_outlier,0.064333017975402,0.0007568590350047,0.0641012298959318,outlier_low_confidence,0.0160253074739829,1,medium,0.17686579,0.6071464,0.21598785,False
26315,test,2,bad,111001,111,0.246659074094836,0.246655812077354,1.689468274712563,0.0920549076697861,0.6016,0.7862289831865492,0.6,1.4578318094546956,1.1871014609754695,0.0009469203650951,0.0377316437661647,3.984627081039253,0.5616737658566417,0.0137228880255189,0.1059323026310956,0.6073292826006679,13.0,24.0,1.1,0.3372122463992126,1.836615936512192,0.0413057752696304,0.1824004111983868,0.0,0.0,0.1428571428571428,0.6668594489050881,0.0170103189221299,0.0152,1.0,0.0170103189221299,0.0,0.999999999999,0.7866188024352629,-4.857308568915437,41.73866061767325,0.0616493194555644,0.5455309734199465,0.0608390946984228,0.23704363950982,4.81877455169133,0.0208166533226581,0.265224358974359,0.1553528408217497,0.3958461580064835,1.1867284367239817,0.4889371564637315,3.559026084010437,0.2193450929151803,13.0,12.0,5.0,0.358231057684817,0.0095069459639489,0.5616737658566417,0.3157506757613955,0.0983618622593497,0.0195173057433477,0.0046680552858162,0.877601010993637,0.0745871661775535,0.044809330417294,0.0015169674895318,0.0014855132720966,-9.247906862013611,16.104606451427877,-4.174498099743012,1.8959882758339497,14.254514447477398,27.232607560840385,6.918738456670959,-14.87403035529652,43.14336283475871,39.12800400639112,-4.015358828367596,0.1,good,False,False,ambiguous_boundary,0.0637653736991485,0.0015137180700094,bad_outlier,0.0637653736991485,0.0015137180700094,0.0639971617786187,outlier_low_confidence,0.0159992904446546,1,medium,0.18052386,0.60509515,0.21438105,False
26311,test,2,bad,111001,111,0.1768860566507019,0.1760626542760492,1.094309570491314,0.0878846282499871,0.3776,0.7213771016813451,0.5,1.0370957279974753,1.5600936865200572,0.0010050237178802,0.0389879822731018,3.879271071156965,0.2470984935144475,0.010660926108307,0.1403887213664733,0.6494082480233887,12.0,27.0,1.5,0.2848815252864903,5.155962943697587,0.05870640702383,0.1359600714563235,0.0,0.0,0.0714285714285714,0.6633304978670669,0.0159976612303604,0.0152,1.0,0.0159976612303604,0.0,0.59999999999988,0.838041307759671,-3.0175373813117647,16.121719752665104,0.0672538030424339,0.7812734605827106,0.0309980647094746,0.2327403805040545,4.022484177503918,0.0168134507606084,0.1586538461538461,0.2362347393601254,0.6124734742574408,1.1282985104060514,0.334492315979001,0.816496580927726,0.5505102572168219,12.0,10.0,11.0,0.3281569593294929,0.0183963107876479,0.2470984935144475,0.5995838019017432,0.1312253239312413,0.019307701885242,0.0027834837920297,0.8660108086988789,0.1111126668035495,0.0175287349454047,0.0048287657353246,0.0005190025156596,-7.788959921869013,13.60319808291128,-5.284816294016124,1.1969757135594368,8.435498735720588,21.47484938283659,7.030330987796432,-13.360368454626895,35.881254147797605,31.559627104852105,-4.321627042945501,0.1,good,False,False,ambiguous_boundary,0.0624408703878902,0.0030274361400189,bad_outlier,0.0624408703878902,0.0030274361400189,0.0637038789025543,outlier_low_confidence,0.0159259697256385,1,medium,0.17778213,0.5888589,0.23335901,False
26313,test,2,bad,111001,111,0.1842521270299194,0.1840085914266998,1.2257889139652252,0.0972332245452009,0.3304,0.6925540432345877,0.4,0.9324094443632304,2.00614194266528,0.001199934631586,0.0491959691047666,4.09985326070753,0.4202768368018804,0.0176798410783671,0.229753391298719,0.6472079661383976,15.0,30.0,1.5,0.3541387596696323,4.5528874107029695,0.0326203421753962,0.1641866312741821,0.0,0.0,0.2857142857142857,0.6675005970342671,0.032545832409768,0.0152,1.0,0.032545832409768,0.0,0.4999999999999167,0.8273525408366611,-2.1486804411444824,15.781822469913156,0.0672538030424339,0.6409291309172083,0.0338591680386664,0.2437636403267331,3.905411305882138,0.0280224179343474,0.1907051282051282,0.3518848196829178,0.6444554177382932,1.1941401237246427,0.1964073020758076,1.4142135623730951,0.4142135623730951,15.0,12.0,12.0,0.4289157334811986,0.0181941479444503,0.4202768368018804,0.3258552327351581,0.2225729527945438,0.0272552856321715,0.0040334261063698,0.8630886374495315,0.0610383048088495,0.0719149012805522,0.0033499741338343,0.000608160962965,-6.753774519696939,14.13973133802336,-4.146423039387223,0.6179127846618748,8.742064308804087,17.757527768651844,5.70789889010125,-10.048365416875178,31.97012916824226,27.53156112679978,-4.43856804144248,0.1,good,False,False,ambiguous_boundary,0.0613055818353831,0.0045411542100283,bad_outlier,0.0613055818353831,0.0045411542100283,0.063495742667928,outlier_low_confidence,0.015873935666982,1,medium,0.17712924,0.5787175,0.24415325,False
26310,test,2,bad,111001,111,0.2288807106898258,0.2267631357190342,1.6175444754958153,0.0831162269555636,0.7192,0.8102481985588471,0.6,1.3757499845949468,1.9049913170893664,0.0006632506847381,0.0280852988362312,4.234428405374074,0.3459050597036732,0.0234251871966249,0.1089495392162426,0.6434061841624238,10.0,18.0,0.8,0.2709656957215668,8.073575130509353,0.0861351891908739,0.1326554071177884,0.0,0.0,0.0714285714285714,0.7133265300719464,0.0164008820512629,0.0152,1.0,0.0164008820512629,0.0,0.6666666666664445,0.7015108968380365,-4.022250622388521,26.787761130150063,0.0920736589271417,0.7697299702405489,0.0514215251858665,0.2750314731818077,4.240959189625178,0.032826261008807,0.2596153846153846,0.1557945298680027,0.4272485429012058,1.1764328601502936,0.3936210737875828,2.357022603955158,0.2978830106243031,10.0,10.0,5.0,0.297344611370034,0.0099791765213012,0.3459050597036732,0.5183113439619714,0.1005308230030747,0.0262842987949562,0.0089330681540531,0.852915002383168,0.1135498705385071,0.0240440338042816,0.0082987214864358,0.0011923584465904,-10.24151537144824,15.000958163985178,-5.728824675503562,3.447298987010525,12.228459432480363,27.28965106215866,8.708230824317672,-15.165162743039248,43.27391901692117,38.931574587793065,-4.342344429128104,0.1,good,False,False,ambiguous_boundary,0.062251655629139,0.0013245033112582,bad_outlier,0.062251655629139,0.0013245033112582,0.0632781456953642,outlier_low_confidence,0.015819536423841,1,medium,0.19752188,0.57396,0.22851808,False
26297,test,2,bad,111001,111,0.2830864072946844,0.2815611582699845,1.9232279589772223,0.1497560655803885,0.1296,0.622898318654924,0.5,0.8474934214125918,1.3418036278255985,0.0025735795497894,0.0986697573214768,3.833935264834673,0.2198689357196277,0.0202893273333001,0.2029512305763391,0.7001379615439519,16.0,34.0,1.8,0.5653213020594476,6.758771374883823,0.0908117456117334,0.2291105294857319,0.0,0.0,0.3571428571428571,0.6329379318926603,0.040975947829994,0.0152,1.0,0.040975947829994,0.0,0.7142857142856123,0.8393948379446283,-4.184249449030689,30.0410116943929,0.0400320256204963,0.7990787092546767,0.0792766902151121,0.3105902730494255,3.5336450341935683,0.0232185748598879,0.2243589743589743,0.3342920403971728,0.5995312451259783,1.2346169700438268,0.2861853987750973,1.247219128924647,0.4449944320643648,16.0,15.0,13.0,0.3025638201193926,0.0393108289688825,0.2198689357196277,0.551679976824753,0.1892834309484547,0.0315707129977143,0.0075433909174459,0.7582733043198071,0.1869375592923698,0.0486128452244263,0.0045008915056702,0.001675390797082,-7.48764857960482,10.223305722753254,-1.9440703259491003,1.375584693278835,10.261076256031537,19.83358644413796,5.698164255252658,-16.079011082340713,34.75713343161881,30.30742730639451,-4.449706125224303,0.1,good,False,False,ambiguous_boundary,0.0609271523178807,0.0035950804162724,bad_outlier,0.0609271523178807,0.0035950804162724,0.0631362346263008,outlier_low_confidence,0.0157840586565752,1,medium,0.17295644,0.6112272,0.21581635,False
26291,test,2,bad,111001,111,0.183341614531187,0.1829827477553712,1.124828719496727,0.0983705447119311,0.3296,0.6565252201761409,0.4,0.8688556126376339,0.7861138659095318,0.0011700756149366,0.0894546873867507,7.64514034228119,0.111438016495478,0.0433306412168602,0.2622931389071062,0.7192704876865785,17.0,33.0,1.6,0.3846415979996208,4.877194889830254,0.0722010510551478,0.2338286843931803,0.0,0.0,0.4285714285714285,0.6913917299303416,0.0388034046513714,0.0152,1.0,0.0388034046513714,0.0,0.7499999999999063,0.7081299949314193,-0.4124754923116238,13.915713604548795,0.0648518815052041,0.9121423158960472,0.0334826923164509,0.3865296710720595,2.939779799250608,0.0304243394715772,0.2307692307692307,0.2240003266193343,0.5770692285643237,1.2564865616608931,0.2214685187272167,1.699673171197595,0.3704152082810796,17.0,14.0,13.0,0.4688380942014951,0.0479663231642917,0.111438016495478,0.5719055772100858,0.2459383403134495,0.058277494507043,0.0124054708821109,0.6971908049397012,0.2101488818780408,0.0786293535637727,0.0104466726565867,0.0035842654228851,-6.519264949756707,9.992011308508609,-3.488275129773112,2.712818051115074,6.999248240154785,17.423799450729753,8.563115128282963,-11.118904653980248,30.671310346811964,26.06400471587084,-4.607305630941124,0.1,good,False,False,ambiguous_boundary,0.0596026490066225,0.0049195837275307,bad_outlier,0.0596026490066225,0.0049195837275307,0.0628051087984862,outlier_low_confidence,0.0157012771996215,1,medium,0.1887984,0.55348235,0.25771928,False
26308,test,2,bad,111001,111,0.2615393046393975,0.2602179780463213,1.8551826825737951,0.0926164464881556,0.6368,0.7830264211369096,0.5,1.3059330900687758,1.305937740085764,0.0010872296988964,0.0418845627456902,3.852376140073319,0.1974608353848847,0.0189536961328666,0.1472059238075138,0.6439066571578808,15.0,23.0,0.8,0.2461121938919989,5.898534877775305,0.0846434815009452,0.0816009643665525,0.0,0.0,0.2857142857142857,0.6969959363775211,0.0201273182567586,0.0152,1.0,0.0201273182567586,0.0,0.39999999999992,0.7865641975157964,-4.6189575304558685,30.666171931566915,0.0488390712570056,0.7721363044149532,0.0677134008941562,0.2818862521324516,3.999202172114436,0.0264211369095276,0.1939102564102564,0.1518862826955329,0.4417447399123147,1.1413606534183505,0.2364477191484768,2.0548046676563256,0.3273531727209285,15.0,13.0,10.0,0.3209213185277093,0.0141821861267089,0.1974608353848847,0.6328018061312939,0.1357595839129085,0.0276898966098835,0.0062435682389908,0.792612205329037,0.1728184837237077,0.0257523580451625,0.0071291284966204,0.0016878140525513,-8.68983964222068,11.953987165289895,-3.306342740924065,3.1890566633001023,9.382706509213811,22.47190505586916,6.105103337024198,-12.97260053736987,36.20167385650226,31.48076675116344,-4.720907105338821,0.1,good,False,False,ambiguous_boundary,0.058088930936613,0.0028382213812677,bad_outlier,0.058088930936613,0.0028382213812677,0.0617076631977294,outlier_low_confidence,0.0154269157994323,1,medium,0.18415591,0.6035104,0.21233377,False
26312,test,2,bad,111001,111,0.3233991947229119,0.3220771133092938,2.0952376669645307,0.1048399150024328,0.4824,0.7534027221777422,0.5,1.0321015926251176,0.409291682364562,0.0017221551388502,0.0704085730016229,4.088375232623196,0.0614503984035523,0.0432911568624108,0.3805445775842931,0.782466080571249,14.0,28.0,1.4,0.3121025245188796,8.915911360247728,0.0437048717049743,0.2021734012404009,0.0,0.0,0.2142857142857142,0.6429967933755316,0.0494870513983452,0.0152,1.0,0.0494870513983452,0.0,0.59999999999988,0.8037109232187764,-6.788152176072923,58.22058131772605,0.0416333066453162,0.94050706654755,0.1037336704761055,0.4538056938792015,2.4388704883084724,0.0432345876701361,0.2435897435897435,0.1412580540183018,0.4301606750808823,1.2833199711873449,0.1227543166256657,3.0912061651652345,0.2444266946297027,14.0,15.0,8.0,0.2115134825781318,0.0144232027232646,0.0614503984035523,0.5027143070729448,0.3450669553116811,0.0741899857953195,0.0165653389085828,0.5551719197620691,0.2572780570306872,0.1627866851962863,0.0202824961209022,0.0044808339526066,-8.147839218928462,6.781750642280671,-2.6437983024325704,4.2734970948527415,9.836596092063427,21.26441881077813,5.910421862540287,-14.34959846536708,34.47889764443218,29.66900821113501,-4.809889433297165,0.1,good,False,False,ambiguous_boundary,0.0565752128666035,0.0039735099337748,bad_outlier,0.0565752128666035,0.0039735099337748,0.0612535477767265,outlier_low_confidence,0.0153133869441816,1,medium,0.17974943,0.602822,0.21742852,False
25136,test,2,bad,111001,111,0.1640431637152112,0.1640043455076995,0.7674158355593679,0.1255993067302595,0.1264,0.1537229783827061,0.0,0.479046983738826,1.4183109072545548,0.0110222920775413,0.0669239252805709,0.6071683103018267,0.2267603083927201,0.0245627170358972,0.1562226729372874,0.6920079152781703,27.0,81.0,5.4,0.7428839088114605,2.254022529090602,0.0444007183207131,0.3355919293896428,0.0,1.0,1.0,0.8203109659904609,0.0181336421744728,0.0152,1.0,0.0086357732169586,0.0,0.5454545454544959,0.7205873228317773,0.4063322167622986,4.174770988606751,0.0024019215372297,0.7037575410614855,0.026897432065322,0.2276145000119017,5.160423264542047,0.0384307445956765,0.4567307692307692,0.5460823680357373,0.8414631845387514,1.4916253399171149,0.3116810118344318,4.027681991198191,0.1988988169400271,27.0,19.0,18.0,0.7764300821115355,0.052673477306962,0.2267603083927201,0.5840720778534216,0.1439597317596148,0.0358512890458842,0.0093310157404315,0.9231297978530654,0.0561438149535895,0.0137005459117848,0.0060700934663001,0.00095572268079,-0.907228612196129,9.599534421202245,3.1687164762750504,-1.1402951538742292,-1.0277611917152705,-0.176828911187018,-1.965118218523884,0.4433624430549144,15.616293122728136,9.318648423036322,-6.297644699691814,0.1,medium,False,False,ambiguous_boundary,0.0346263008514664,0.0463576158940397,bad_outlier,0.0346263008514664,0.0463576158940397,0.0598533585619678,outlier_low_confidence,0.0149633396404919,0,good,0.66018176,0.0010179506,0.3388003,False
30601,test,2,bad,111001,111,0.178080737732396,0.1749984416861618,0.5978352697193623,0.1489779014093452,0.0664,0.1521216973578863,0.4,0.6180867084309721,0.6272691775023475,0.0084548890590667,0.0216345459222793,0.2558817766023963,0.7337484015925742,0.0101784980769642,0.0423292373126322,0.4750752400075128,28.0,83.0,5.5,0.1655799653267995,0.6920937299044155,0.0207479308569591,0.1090790668472372,0.0,1.0,1.0,0.8229099105541509,0.0010782882533131,0.0152,1.0,0.0002193820778719,0.0,0.0,0.1251806828006349,0.5179627612830336,2.1009257798431404,0.0032025620496397,0.1347616838000838,0.0306244610926162,0.0908952939246232,17.65709253664577,0.0168134507606084,0.6634615384615384,0.5917711326460713,0.943886624998525,1.9384890220518736,0.5087821325753089,6.128258770283412,0.1402867140807012,28.0,15.0,15.0,1.0155126783501474,0.0211807440267875,0.7337484015925742,0.2122611227585607,0.0347240935811189,0.0144185846803352,0.0048324903960041,0.9987780933729062,0.0001332634290839,0.000416384669962,0.0005086949158652,0.0001635474287637,-0.7283363080319782,19.17109798973995,1.979811247360853,-3.050430947343325,13.964681007612873,18.53587227619189,-0.6289665435972513,-12.201129733477131,34.54214229395095,32.26394062074142,-2.27820167320953,0.0666666666666666,medium,False,False,ambiguous_boundary,0.066414380321665,0.0037842951750236,bad_outlier,0.066414380321665,0.0037842951750236,0.0539766635130873,outlier_low_confidence,0.0134941658782718,1,medium,0.11300454,0.7640928,0.12290263,False
26265,test,2,bad,111001,111,0.1980852933055231,0.1786343177592594,0.5974390113353729,0.1207518309040875,0.4376,0.6517213771016813,0.4,1.1152799286384996,1.997272512888934,0.0015259617939591,0.0184123039245605,1.2065952986450514,0.7725124979668284,0.0099075410646018,0.0383709094285631,0.3998976950306725,13.0,36.0,2.3,0.2535573139374794,1.135297677256911,0.0263232048727613,0.0928016283192034,0.0,0.0,0.1428571428571428,0.6615503080677774,0.0029482499175893,0.0152,1.0,0.0020488970274484,0.0,0.0,0.5825397595725641,-1.0926210360657225,2.6320520077894827,0.0488390712570056,0.1745701101678732,0.0319102259086298,0.0618475836018259,19.469805506999,0.0176140912730184,0.3790064102564102,0.4157909555625678,0.7594928463854907,1.3705592036388106,0.1255136622426733,1.632993161855452,0.3797958971132712,13.0,11.0,9.0,0.7468749759402162,0.0107636369764804,0.7725124979668284,0.1778006460535255,0.0339708959818484,0.0123526753563756,0.0033584820141024,0.996282753806608,0.0026018985596622,0.0008456120539117,0.0002256839495056,4.40345067881193e-05,-6.248035875850374,22.44839952134021,-4.528876452799969,-2.376341419545227,14.702099847612317,21.63451864284755,-0.4497442982228724,-11.145025792160968,39.99561392595987,36.84328532736816,-3.1523285985917084,0.0666666666666666,good,False,False,ambiguous_boundary,0.0658467360454115,0.0024597918637653,bad_outlier,0.0658467360454115,0.0024597918637653,0.0534563229265215,outlier_low_confidence,0.0133640807316303,1,medium,0.1659475,0.7157539,0.11829856,False
26276,test,2,bad,111001,111,0.1861226755119437,0.172646717161442,0.7963264403492212,0.1049077952351508,0.316,0.588470776621297,0.4,1.1596439770335285,1.4436966915033052,0.0014929121825844,0.0431092735379934,2.8875767297774853,0.8042513346322755,0.013024497567896,0.0593117860640721,0.4231328793944419,16.0,35.0,1.9,0.5411516985461732,2.014143831397317,0.0370855999875866,0.258533221506748,0.0,0.0,0.3571428571428571,0.6373915966299681,0.0110678185421999,0.0152,1.0,0.0110678185421999,0.0,0.1111111111110987,0.6434756838288104,-1.8349943809190448,5.764609935858191,0.0808646917534027,0.3426429985115645,0.0298068954936887,0.1377155487913318,9.447753330124666,0.0416333066453162,0.2844551282051282,0.3316668870978677,0.7600062948108596,1.3647385316300935,0.2338369570862485,2.0548046676563256,0.3273531727209285,16.0,11.0,14.0,0.7351373548778809,0.0245406227186322,0.8042513346322755,0.1204261464772373,0.054833562726872,0.0148632439448158,0.0055921387515649,0.980851930222915,0.0130426115043329,0.0041293742612034,0.0016492364607294,0.0003268280488877,-6.010373850289347,20.18471448376868,-4.533279707446357,-0.3097143212587397,12.819162838441908,19.89899465278208,3.407045169069751,-9.39724509305241,36.61595710674618,33.212002249560555,-3.4039548571856244,0.0666666666666666,good,False,False,ambiguous_boundary,0.0656575212866603,0.0026490066225165,bad_outlier,0.0656575212866603,0.0026490066225165,0.0534090192368337,outlier_low_confidence,0.0133522548092084,1,medium,0.1739839,0.6035978,0.22241832,False
25201,test,2,bad,111001,111,0.1675230738693303,0.1674764772607141,0.888280399441719,0.1147005596413742,0.1416,0.2185748598879103,0.0,0.3629886036735332,0.9122794364597028,0.0113637543981894,0.1678063217550515,1.476678993642169,0.3738409162224241,0.0694539218896588,0.2334162193838316,0.7087374305831009,24.0,69.0,4.5,1.4680274368929171,3.86113344722214,0.0428530008793322,0.8393004592313055,0.0,1.0,0.9285714285714286,0.7384118319850793,0.0623020753220511,0.0152,1.0,0.0561395238721185,0.0,0.4761904761904535,0.5883788059697235,-1.6814197380233082,9.302567437132428,0.0128102481985588,0.7383343596745215,0.028048377086129,0.4547350424112318,2.95740183174592,0.100080064051241,0.390224358974359,0.5373794332858226,0.772543416500044,1.509913032846771,0.1703529314601783,1.632993161855452,0.3797958971132712,24.0,22.0,20.0,0.6743693546380235,0.1449938181787728,0.3738409162224241,0.3087208549053395,0.1963793087189848,0.0937866048311061,0.0272369133572166,0.8183649105126164,0.1009256117786162,0.0515768999389652,0.0245881855382772,0.0045443654194505,-0.2324977099508357,8.17173658870288,1.1802643728732642,-0.4397240383283294,-0.9064710309975452,0.9489219956636776,-0.7649569391667744,1.515955967042109,13.733097402403256,7.82951062181046,-5.903586780592796,0.0666666666666666,medium,False,False,ambiguous_boundary,0.0421948912015137,0.0546830652790917,bad_outlier,0.0421948912015137,0.0546830652790917,0.0532576474298328,outlier_low_confidence,0.0133144118574582,2,bad,0.02846805,0.00047702366,0.97105485,True
27080,test,2,bad,111001,111,0.193256414923174,0.1871472778564688,0.8466824266314505,0.1323560029457949,0.192,0.6981585268214572,0.5,0.8419701291246329,2.124203947405164,0.0012894095852971,0.0182229615747928,1.4132685576195845,0.658911073852627,0.0021822485690358,0.03364918105967,0.4539413609871559,13.0,23.0,1.0,0.5125212494381901,2.181777289279278,0.1082341893699151,0.0503817533717961,0.0,0.0,0.1428571428571428,0.663334813382527,0.0086229601596369,0.0152,1.0,0.0064775399345031,0.0,0.0,0.8849494791968296,-1.0478711261818734,3.5123482326379136,0.0544435548438751,0.3194363737998411,0.0350241098661409,0.0653101371573485,15.5334397895298,0.0096076861489191,0.250801282051282,0.3893893753725132,0.7873494065256718,1.1523347200548888,0.4257887151527323,1.699673171197595,0.3704152082810796,13.0,10.0,9.0,0.7281882809712643,0.0126427360752131,0.658911073852627,0.3047323504478956,0.0325455431203843,0.0033151661730108,0.0004953445517702,0.9796463438759924,0.018995343683104,0.0010774434287947,0.0002370022192205,4.3848874284916325e-05,-7.559018308837599,21.15897624154131,-4.597888948830912,-0.5567731641798254,14.443699698726729,22.990217468589464,3.159827146409301,-15.214092588414488,41.860227686028914,38.37516660842768,-3.4850610776012303,0.0666666666666666,good,False,False,ambiguous_boundary,0.0654683065279091,0.0017029328287606,bad_outlier,0.0654683065279091,0.0017029328287606,0.0531346578366445,outlier_low_confidence,0.0132836644591611,1,medium,0.18985295,0.6490408,0.16110623,False
26279,test,2,bad,111001,111,0.1743570958289743,0.1622711572712329,0.632973950356245,0.1166279496514005,0.1552,0.6933546837469976,0.4,0.8718742582670692,1.3660047159040571,0.000896867364645,0.0378394544124602,4.219022120982799,0.4743786353581122,0.0210549813723174,0.1250243290887916,0.5987476067674516,15.0,30.0,1.5,0.5701231389611,2.457149338439075,0.0390577935193623,0.1056318085465763,0.0,0.0,0.2857142857142857,0.6584124966518419,0.0285117051786429,0.0152,1.0,0.0285117051786429,0.0,0.3333333333332963,0.7153602798873283,-1.0955925445238803,3.122508609914499,0.1040832666132906,0.5671377888338989,0.0263319352367221,0.1506348765295891,7.906583482303412,0.0144115292233787,0.2115384615384615,0.3073315758944705,0.8215700666059416,1.2841120792112428,0.2572581939620406,2.943920288775949,0.2535548202751237,15.0,8.0,10.0,0.7046967870225987,0.0134710073471069,0.4743786353581122,0.3751488759674095,0.1113003019528173,0.0317503597233247,0.0073750636824593,0.967832434024569,0.0195373672950055,0.0101890768615029,0.0021197656523653,0.0003213339731046,-6.941402858236171,17.744308028779468,-5.322689590352241,0.8659254447585614,11.7425143482824,17.528269423327313,6.0068628197841365,-11.018033160928605,35.041577270730926,31.031405448457267,-4.010171822273659,0.0666666666666666,good,False,False,ambiguous_boundary,0.0639545884578997,0.0034058656575212,bad_outlier,0.0639545884578997,0.0034058656575212,0.0527940712708924,outlier_low_confidence,0.0131985178177231,1,medium,0.20453708,0.551918,0.24354489,False
30600,test,2,bad,111001,111,0.1774539103629553,0.1647833271768602,0.5760967995226383,0.1252427159821731,0.1184,0.9255404323458768,0.6,0.9120937002000108,2.2783763684222462,0.0005775839090347,0.0038436233997344,0.6654542819119962,0.772377554229504,0.0064298358658191,0.0342213428553241,0.4462670402915406,2.0,7.0,0.5,1.4514237065668345,2.1856455807695867,0.8211319336866214,1.2573720273017526,1.0,0.0,0.6428571428571429,0.0,0.033113112193846,0.0664,1.0,0.0173658047454012,0.0,0.0,0.7098453988821959,1.0193764963048642,2.8575476989945403,0.1200960768614892,0.2949960621709893,0.0271535516198097,0.0877672602729178,14.362533665826383,0.0048038430744595,0.4310897435897436,0.1174237591268304,0.8782019072212469,1.2989675020482052,0.0,0.4714045207910317,0.6796227589829592,2.0,1.0,2.0,0.7188615349678736,0.0023962557315826,0.772377554229504,0.1857271619637413,0.0303917499027496,0.0087034551666957,0.0027905317167053,0.9860536804139808,0.0121883128679604,0.0014375367252668,0.0002288575374608,9.159159945910056e-05,-13.08207458844706,28.21897834551781,-7.044409755722332,15.117634835754396,14.213503491344502,27.733998080745778,7.826539910495458,-17.673118513541855,54.12135554643245,50.07103850244582,-4.050317043986631,0.0666666666666666,good,False,False,ambiguous_boundary,0.0635761589403973,0.0003784295175023,bad_outlier,0.0635761589403973,0.0003784295175023,0.0520182907600125,outlier_low_confidence,0.0130045726900031,1,medium,0.29030508,0.49824148,0.21145341,False
25559,test,2,bad,111001,111,0.1652508575113163,0.1650201584396541,0.782224841117859,0.1252362406762711,0.0976,0.100080064051241,0.0,0.2171928015183111,0.8896088621734481,0.0192350149154663,0.1658333837985992,0.8621428073392178,0.1163136658435088,0.075475823820623,0.2432186592825598,0.7598859959041416,23.0,81.0,5.8,1.8753439728966783,3.7685956222863455,0.0298143458766371,1.331717088840682,0.0,1.0,0.8571428571428571,0.7257168744918758,0.0670762715855234,0.0152,1.0,0.0474525032004438,0.0,0.4736842105262909,0.6050624572894954,-0.7285854005197656,5.3135818273992985,0.0064051240992794,0.8814324764526643,0.0272316593910454,0.4817043131825431,2.704713270280782,0.1080864691753402,0.4134615384615384,0.6080753723098057,0.8071376271378493,1.4904214313519135,0.2560116392072202,0.816496580927726,0.5505102572168219,23.0,21.0,22.0,0.7418796440217059,0.1643496885895729,0.1163136658435088,0.548311816311101,0.2084597721459833,0.0966324421791696,0.0301444762916096,0.7135397241542112,0.188389589739496,0.0664336559875624,0.0255454487322757,0.0060915526830855,0.5253379081064989,5.290475591400616,1.2114432577082002,-1.5433373783399875,-2.6586770680492045,-0.3355384587957063,-1.4019518160516855,0.1689717786101472,11.964320335532785,5.504428327749996,-6.459892007782789,0.0666666666666666,medium,False,False,ambiguous_boundary,0.0336802270577105,0.0633869441816461,bad_outlier,0.0336802270577105,0.0633869441816461,0.0511668243456322,outlier_low_confidence,0.012791706086408,2,bad,0.0019853655,0.00015659991,0.9978581,True
25031,test,2,bad,111001,111,0.1683464028635806,0.1673835433817675,0.8920193848013876,0.1135297602025675,0.152,0.1537229783827061,0.0,0.4953173731953608,1.544304546235603,0.0112169608473777,0.1284140455070882,1.1448192854767736,0.3759902003380267,0.058834912007033,0.2668480709214565,0.7093218785807794,26.0,75.0,4.9,1.3944024419505572,4.374881006677636,0.0359989847874576,0.8608953689002948,0.0,1.0,1.0,0.811862756982537,0.0630667121563855,0.0152,1.0,0.0514747516313046,0.0,0.624999999999961,0.7166938959576995,0.0735846576385639,8.373390631926306,0.0056044835868694,0.674029388061983,0.0280172572473652,0.4315618160428658,3.2203024570236405,0.0760608486789431,0.4110576923076923,0.440307691057917,0.7682853253802188,1.4584863811409523,0.3424393689532539,3.0912061651652345,0.2444266946297027,26.0,20.0,19.0,0.6544727076922373,0.1202427987009286,0.3759902003380267,0.2874662187877324,0.2416312317460634,0.0726553612947822,0.0222417673850874,0.7915770480214298,0.1233360422832613,0.0656679798081669,0.0137461245737109,0.0056727792971106,-0.8056367260582857,8.602631652711965,2.5789561506227,-1.2303966505243848,-0.6367418552835572,0.7782157200485564,-0.7888479876292753,1.5662514808163364,14.771556252017092,8.195972706267117,-6.575583545749975,0.0666666666666666,medium,False,False,ambiguous_boundary,0.0302743614001892,0.049763481551561,bad_outlier,0.0302743614001892,0.049763481551561,0.0469094922737306,outlier_low_confidence,0.0117273730684326,0,good,0.80934924,0.000325061,0.19032565,False
25032,test,2,bad,111001,111,0.1680475064757038,0.1665661616128933,0.6923792123794554,0.135299923222186,0.0936,0.1897518014411529,0.0,0.4600809870587451,1.1081506006900803,0.0078421682119369,0.0890330351889132,1.1353100220725905,0.422786464332134,0.0451199116992114,0.188050373041019,0.6252980643361675,23.0,70.0,4.7,1.1510433965876727,2.128094798364571,0.0447265805623328,0.640106772598973,0.0,1.0,0.8571428571428571,0.7168681594723048,0.0379744105464409,0.0152,1.0,0.0268525559926463,0.0,0.2105263157894626,0.6274135652377938,-0.3869475350929172,2.572176401093848,0.0032025620496397,0.5965285699055478,0.0277442928631293,0.2143085671951315,6.079044815266688,0.0416333066453162,0.3790064102564102,0.635122801037044,0.8948319045935169,1.4759714297512954,0.2988987563014877,3.741657386773941,0.2108967220595339,23.0,20.0,14.0,1.069779942285207,0.0728283241391182,0.422786464332134,0.3343437261319414,0.1666646145175261,0.0601113319908318,0.0160350621641342,0.949539899968354,0.0289783172001304,0.0157134082575835,0.0049405434722895,0.0008278077468237,-0.8091941736569002,11.165072769203164,1.6811546996717546,-1.2399304055097642,1.094002497562503,0.1065269420853812,-2.155964045735285,0.6107050875366604,16.250284318443303,10.884557335058402,-5.365726983384901,0.0333333333333333,medium,False,False,ambiguous_boundary,0.051844843897824,0.0442762535477767,bad_outlier,0.051844843897824,0.0442762535477767,0.0438520971302428,outlier_low_confidence,0.0109630242825607,2,bad,0.36255327,0.0019025556,0.6355442,True
25545,test,2,bad,111001,111,0.1571799134528243,0.1567940164772321,0.7373297843337059,0.1228660702130349,0.108,0.1409127301841473,0.0,0.2759968850745787,1.1216477547061503,0.0138897597789764,0.1423475330229847,1.0248372384000344,0.3395768866728298,0.0579697356506756,0.1683119651634803,0.6651856060635306,23.0,71.0,4.8,1.7587043152954045,3.053935745507045,0.0625491818855425,0.8681938791553696,0.0,1.0,0.8571428571428571,0.8345994351389414,0.0510363757670452,0.0152,1.0,0.0368192175203377,0.0,0.2272727272727169,0.6114390869101237,-0.2610803044869871,3.30798252783842,0.0088070456365092,0.7159783963061449,0.0245843704671823,0.4151898227049383,3.26861804888268,0.0816653322658126,0.4358974358974359,0.5811756274036044,0.8813440090364459,1.4778826732384172,0.1677979547984895,2.160246899469287,0.3164309725825327,23.0,18.0,19.0,0.6679775606981823,0.1626597743481397,0.3395768866728298,0.4252412321175196,0.1519310040631225,0.0635765480512937,0.0196639045034441,0.8161433263492422,0.1217558407093059,0.0434980311609882,0.0148699551913083,0.0037328171374071,-0.1288436344860036,8.570950981153258,1.2278946968135676,-0.8660720090853571,-1.3728182676655225,0.3269110857377145,-1.1724594780212534,0.8134076133842101,13.92207114700434,8.145008102355922,-5.777063044648418,0.0333333333333333,medium,False,False,ambiguous_boundary,0.0450331125827814,0.0537369914853358,bad_outlier,0.0450331125827814,0.0537369914853358,0.0426789656259854,outlier_low_confidence,0.0106697414064963,2,bad,0.024068424,0.00043607515,0.9754955,True
25266,test,2,bad,111001,111,0.1726808475545642,0.1723774349811017,1.0286212339997292,0.1024603095324753,0.2384,0.3923138510808647,0.2,0.8110188612563117,0.7719620349810445,0.003656730055809,0.1244502171874046,3.4033104702016104,0.1096023644809679,0.0488313309566673,0.3437367661026754,0.7718053200551958,21.0,60.0,3.9,0.71383689262768,4.080684301024427,0.0297236197822067,0.2944699319142027,0.0,0.0,0.7142857142857143,0.6612921943743418,0.0500759153054329,0.0152,0.975,0.0500759153054329,0.0,0.307692307692284,0.7586535892371122,-2.019961822052851,11.191610961441365,0.0152121697357886,0.8354427434449293,0.0297139866431153,0.4140386880540148,2.974303228300145,0.0496397117694155,0.3685897435897436,0.3866498784596521,0.6838415350072863,1.3367862795856746,0.2286334308340866,0.4714045207910317,0.6796227589829592,21.0,21.0,20.0,0.5197572652230774,0.0636636548675596,0.1096023644809679,0.4901388487692251,0.3084320422986758,0.0728616323834332,0.0185449225848942,0.7275265741170044,0.199627544282093,0.0553155348962201,0.01381499264176,0.0037153301890255,-2.414273817462256,7.718583053566254,-0.7910982891517094,-0.3978087878867393,1.4019397691000135,8.86421825003551,2.3665940338798013,-5.6437074579795325,18.43280428865,13.313932768324932,-5.118871520325069,0.0333333333333333,medium,False,False,ambiguous_boundary,0.0533585619678334,0.0336802270577105,bad_outlier,0.0533585619678334,0.0336802270577105,0.0424140649637338,outlier_low_confidence,0.0106035162409334,2,bad,0.114604145,0.10130804,0.7840878,True
25276,test,2,bad,111001,111,0.1711839695542603,0.1711666063970403,0.9462881922721862,0.1335376181730244,0.0888,0.1641313050440352,0.0,0.2785253208095078,0.9676739038304176,0.0089175477623939,0.0441235817968845,0.4947944602383982,0.5231544404208702,0.0039384104422578,0.0302131863885465,0.4922710100546903,22.0,74.0,5.2,1.1190342613112352,2.13810964593786,0.1183256329956411,0.1481478369760767,0.0,0.0,0.7857142857142857,0.7222041988618357,0.0054531597922848,0.0152,1.0,0.0016459108149976,0.0,0.1764705882352837,0.7831741584026041,0.2715608474753737,3.8192837270098994,0.0088070456365092,0.4794601629029479,0.0292980137221473,0.1374419230920215,7.568279279495897,0.0304243394715772,0.4118589743589743,0.6101786192056655,0.8580319222423881,1.2429852128041965,0.1219660343707415,2.6246692913372702,0.275887238151612,22.0,21.0,16.0,0.6185186050185316,0.0509043343365192,0.5231544404208702,0.441754501132315,0.0278238548506911,0.0059784877859502,0.0012881011556494,0.9563112677240644,0.0351849586037941,0.0068119754675299,0.0014745354083393,0.0002172412491305,-2.3107357643683613,12.789797279244542,1.129583821884753,0.2437323771684667,-0.0137369293011139,1.3369652932702647,-3.8308939912480056,0.0987003107486727,18.520005678626973,13.053749086014331,-5.466256592612641,0.0333333333333333,medium,False,False,ambiguous_boundary,0.0499526963103122,0.0333017975402081,bad_outlier,0.0499526963103122,0.0333017975402081,0.0408057395143487,outlier_low_confidence,0.0102014348785871,2,bad,0.036585037,0.0020808012,0.9613342,True
25264,test,2,bad,111001,111,0.191255793667937,0.1750992615672548,0.65258984208107,0.1437513781214365,0.1184,0.6581265012009607,0.3,0.7109905662979832,1.640621757998476,0.0015465021133422,0.0190313346683978,1.2305971937890503,0.794765740390807,0.0033960885258243,0.0306763718428229,0.3849944091243107,11.0,25.0,1.4,0.7508671793346616,2.3508124206553296,0.2508949197590936,0.1205992487753585,0.0,0.0,0.0,0.6954783532169986,0.009597450332434,0.0152,1.0,0.0061010919177378,0.0,0.0,0.8364254734540865,-0.7349388125036959,2.3999154485480063,0.0464371497197758,0.3450159924128956,0.0306597578994127,0.0724308070421277,15.64561242317694,0.0056044835868694,0.2403846153846154,0.3612675273898753,0.880004502820384,1.1910403489173709,0.3044912322611512,1.8856180831641267,0.3465462064555278,11.0,7.0,7.0,0.6823387109180951,0.0098460216075181,0.794765740390807,0.1704020823856439,0.0291539948561808,0.004113107561168,0.0015514471115835,0.9902595241122822,0.0074475793382437,0.0018995295867479,0.0003120944523305,8.125408940259121e-05,-7.63106893811817,21.329255727735045,-4.338437436050618,1.760498971568646,9.93315837375162,15.833223986144183,0.9024019958490478,-9.91113102520996,35.09592955104858,30.80929602135463,-4.286633529693948,0.0333333333333333,good,False,False,ambiguous_boundary,0.0626300851466414,0.0032166508987701,bad_outlier,0.0626300851466414,0.0032166508987701,0.0404935351624093,outlier_low_confidence,0.0101233837906023,1,medium,0.22574414,0.6456411,0.12861477,False
25233,test,2,bad,111001,111,0.1621994039333099,0.1596397964751567,0.8101317048072815,0.107899701447552,0.1648,0.2025620496397117,0.0,0.446945307280113,1.5064759676545587,0.0088624283671379,0.1884395159780979,2.126271666687525,0.280528740186509,0.0922580901263478,0.2672911825757821,0.7357247210843343,23.0,71.0,4.8,1.5677188957678152,4.106102225664305,0.0308240845711566,1.0591019753211846,0.0,1.0,0.8571428571428571,0.7499692198645961,0.0722478340683066,0.0152,1.0,0.0722478340683066,0.0,0.4999999999999722,0.5981725564019309,-1.4196192596457695,7.1525450505233055,0.0088070456365092,0.7256324067054354,0.0254848714258336,0.5246902182027485,2.688804820692865,0.0840672538030424,0.4358974358974359,0.4762864436822043,0.7665524293454941,1.5291845866841476,0.1344666561059201,1.8856180831641267,0.3465462064555278,23.0,23.0,19.0,0.6247369200582971,0.1363399125635622,0.280528740186509,0.3473295111652185,0.2377935719577709,0.0943812763083107,0.0399495483203827,0.7639979681593713,0.1221903659603617,0.0819818760449149,0.023615092312259,0.0082146673944046,-0.0868740233561405,7.577647089112736,1.2733237192321418,-1.0771989389271472,-1.0785802571855776,0.8367045496941277,-0.0909432505015799,1.7424734971420908,13.37371037791272,7.212656292420074,-6.161054085492645,0.0333333333333333,medium,False,False,ambiguous_boundary,0.0370860927152317,0.0567644276253547,bad_outlier,0.0370860927152317,0.0567644276253547,0.0397082939135918,outlier_low_confidence,0.0099270734783979,2,bad,0.20028226,0.0006938759,0.7990238,True
26322,test,2,bad,111001,111,0.1766651630930617,0.1763646144648127,1.1505118235945702,0.0996037505038293,0.416,0.7253803042433947,0.4,0.8490552884573087,1.7836717801007225,0.000939130783081,0.0460713505744932,4.90569160710348,0.4979469241630369,0.0185981534326811,0.1269327173715797,0.5976733082480982,12.0,23.0,1.1,0.3265910634471087,4.875811803625114,0.0258943343841265,0.127148093562469,0.0,0.0,0.0714285714285714,0.7083332007655092,0.0197405195964835,0.0152,1.0,0.0197405195964835,0.0,0.29999999999997,0.6113101707540574,-2.099664577331636,13.153104646906144,0.0672538030424339,0.5531038414774364,0.0311044837080298,0.2432807126555205,4.226562218591444,0.0248198558847077,0.1899038461538461,0.2064480658890509,0.6584891055820518,1.276047763515873,0.339253337904157,2.6246692913372702,0.275887238151612,12.0,11.0,6.0,0.472585737098814,0.0114161238074302,0.4979469241630369,0.3473174716264312,0.1059848668079286,0.0430638389399813,0.0056813466896172,0.890070511264085,0.0804848088097813,0.0216609682152542,0.0070867559364294,0.0006969334754631,-7.369220860062624,15.088914061535316,-5.207840959937907,1.1546101380148643,9.356942412973982,17.972552600340567,5.865379590251997,-9.73781048968837,33.065304093728635,28.53520426672735,-4.530099827001283,0.0333333333333333,good,False,False,ambiguous_boundary,0.0603595080416272,0.0043519394512772,bad_outlier,0.0603595080416272,0.0043519394512772,0.0396988331756543,outlier_low_confidence,0.0099247082939135,1,medium,0.19637717,0.576858,0.22676478,False
25133,test,2,bad,111001,111,0.1551613826751883,0.1549694287594533,0.7351954033970831,0.1224805135587928,0.1104,0.2097678142514011,0.0,0.4112927187080233,1.8634275969870409,0.0078362673521041,0.0624555397778749,0.7970052229086104,0.3625570805856461,0.015899142037744,0.1925550780667965,0.6514132076979732,25.0,64.0,3.9,0.99129279559546,2.4990122146498703,0.0810401786440988,0.2267274013382541,0.0,1.0,1.0,0.7816879865316771,0.0389547880903952,0.0152,1.0,0.0218126666857506,0.0,0.2499999999999844,0.851807963578514,-0.0851507901237274,3.187858375561565,0.0096076861489191,0.6370703059246843,0.0240155307506428,0.1831545442662907,5.507972096355099,0.0344275420336269,0.3357371794871794,0.6684293293303664,0.8846330100723674,1.2911071950693365,0.1540127921983785,3.6817870057290873,0.2135936553235555,25.0,20.0,16.0,0.7810180658882327,0.0621877546422183,0.3625570805856461,0.4250762704904383,0.1828466296721202,0.0243856201724288,0.0051263461811339,0.9161119928475908,0.0629582552652822,0.0176811118167539,0.0028826084913007,0.0003660037666005,-1.6297878295037591,11.465639741288356,2.32856200196265,-0.377311666415655,-0.3109219995062007,0.0422351237746356,-1.3439831392948758,0.7465407502214733,16.98357833607689,11.039564477652318,-5.9440138584245705,0.0333333333333333,medium,False,False,ambiguous_boundary,0.0414380321665089,0.0414380321665089,bad_outlier,0.0414380321665089,0.0414380321665089,0.0386013875748974,outlier_low_confidence,0.0096503468937243,2,bad,0.1926756,0.00063205877,0.8066923,True
25265,test,2,bad,111001,111,0.1713314524343125,0.1687963271801242,0.7565980398654938,0.1300476244452875,0.0904,0.1673338670936749,0.0,0.4129021790802149,1.1663064993794263,0.0119978189468383,0.1773182198405264,1.4779192187704313,0.1845235315559379,0.0783437509082433,0.2427891759701507,0.7488047752322536,22.0,72.0,5.0,1.470109371667069,2.840459116914423,0.0398970125292423,0.8760068104145157,0.0,0.0,0.7857142857142857,0.7646070231794059,0.0594877738221739,0.0152,1.0,0.0575077721573704,0.0,0.6111111111110772,0.6458352965012099,-0.9834281960623856,5.061539555785965,0.0072057646116893,0.7933055058530724,0.028492206693573,0.473530937103743,2.8388669563718203,0.0848678943154523,0.4391025641025641,0.5338357489122713,0.8342102407563744,1.4819544987299271,0.1757000439730628,1.247219128924647,0.4449944320643648,22.0,20.0,19.0,0.8505422083076918,0.1761673652450555,0.1845235315559379,0.4838701815848025,0.217673777286344,0.078727910988759,0.0351200892212672,0.7294509116637931,0.1842038508963236,0.0617586176231214,0.0188718544682879,0.0057147397274999,-0.2721676585361169,6.919435062323543,0.614699109186162,-1.662097084583528,-1.708474808203185,-0.0870999344182851,-1.1495727374065454,-0.1370375355193817,13.114642530871825,6.6429171969931975,-6.471725333878625,0.0333333333333333,medium,False,False,ambiguous_boundary,0.0333017975402081,0.0586565752128666,bad_outlier,0.0333017975402081,0.0586565752128666,0.0383837906023336,outlier_low_confidence,0.0095959476505834,2,bad,0.009060226,0.00045703637,0.9904827,True
26314,test,2,bad,111001,111,0.2073606945905851,0.2073579468525982,1.503102021217346,0.1009022782702275,0.5,0.7301841473178543,0.4,1.11200818212301,1.9458313287311,0.0011491328477859,0.0355393923819065,3.0926870797986648,0.4945852317160047,0.0111660601570021,0.0802965435119862,0.5566518979762618,11.0,25.0,1.4,0.3945351794375413,4.705718785844828,0.0296258106076975,0.1687859953292581,0.0,0.0,0.0,0.6850086144432755,0.0131999213344649,0.0152,1.0,0.0131999213344649,0.0,0.6666666666664445,0.7171719375675043,-2.3939495641654207,19.935089862336124,0.0584467574059247,0.5132077458778461,0.0429973239757661,0.2037355676511608,5.303406046760026,0.0144115292233787,0.2051282051282051,0.3201330443501605,0.5642997012002715,1.263352339176883,0.3268088636627423,1.247219128924647,0.4449944320643648,11.0,9.0,8.0,0.3925113951511215,0.0089841544628143,0.4945852317160047,0.4082772516071555,0.0713052102197649,0.0229151725871832,0.0029059143096082,0.9328963643578516,0.0469225295611427,0.0131260907844987,0.0065615530291325,0.0004934461209179,-8.14658836290061,15.239078465259563,-5.02301002637159,0.2986617003128255,9.05442495082149,19.01874773212438,3.6004115292201155,-9.696275463726884,33.686687635669486,28.88031745892932,-4.80637017674017,0.0333333333333333,good,False,False,ambiguous_boundary,0.0567644276253547,0.004162724692526,bad_outlier,0.0567644276253547,0.004162724692526,0.0380432040365814,outlier_low_confidence,0.0095108010091453,1,medium,0.1892459,0.60031706,0.21043704,False
25039,test,2,bad,111001,111,0.1842611152681119,0.1761828502885329,0.7382703372836112,0.140960416177356,0.1048,0.1481184947958366,0.0,0.4807931289430616,0.9437123149559709,0.011695846915245,0.1291427202522753,1.1041749329537645,0.2863103476853477,0.0880385250876012,0.2196240461165521,0.7389031565367947,23.0,77.0,5.4,1.4960425395411745,2.8252295631737576,0.026158678849787,1.1099151009644523,0.0,1.0,0.8571428571428571,0.8390514041947278,0.0513385805775804,0.0152,1.0,0.0435718283928141,0.0,0.3181818181818037,0.5945333061545182,0.6751948879131525,2.8840161274121017,0.0008006405124099,0.6853368595463992,0.0310404032121346,0.3240554558078283,4.399299919899334,0.0512409927942353,0.4711538461538461,0.5819733381368629,0.8763323499678838,1.5464898095483657,0.3940579418847665,3.6817870057290873,0.2135936553235555,23.0,19.0,14.0,0.7165848898950382,0.1089216344058513,0.2863103476853477,0.3865893687490892,0.1969784459997142,0.0900908993531098,0.0398825368959256,0.9155345742523364,0.0547432226357384,0.0202418972319513,0.0068965377903879,0.0025837478470875,-0.353630331417947,8.32740774137881,1.959755092865722,-1.9152806451794504,0.106663307004064,-0.0506118260957169,-1.3267190477141204,0.1423536207470636,14.127706169588851,7.856834871172212,-6.270871298416641,0.0333333333333333,medium,False,False,ambiguous_boundary,0.0350047303689687,0.0526017029328287,bad_outlier,0.0350047303689687,0.0526017029328287,0.0379391359192683,outlier_low_confidence,0.009484783979817,0,good,0.85656774,0.00068067823,0.1427516,False
25292,test,2,bad,111001,111,0.1861574708056931,0.1825531467708252,0.9835941566526888,0.1104936748121981,0.2024,0.3090472377902322,0.0,0.5458379816811558,1.1527985727826455,0.0060308724641799,0.1451197445392608,2.4062771145216217,0.3777774745002979,0.1048809585770682,0.2644991465817304,0.7423677836437566,23.0,57.0,3.4,1.0005542610400666,4.6099320949616605,0.0397701983452393,0.5377088063226396,0.0,1.0,0.8571428571428571,0.7271833041851873,0.060146760944048,0.0152,1.0,0.060146760944048,0.0,0.538461538461497,0.636346407487898,-2.90168104700648,17.938363234865378,0.010408326661329,0.6973689687147351,0.0333256577448676,0.5969272724106778,2.428576573162613,0.0672538030424339,0.358974358974359,0.3176892452241408,0.6756150760811367,1.4581054202723314,0.1561240529607273,2.160246899469287,0.3164309725825327,23.0,22.0,18.0,0.5847633067587928,0.0895450171083211,0.3777774745002979,0.2410417490735305,0.2372311404450315,0.0947742608946768,0.0490912887353292,0.7166032753967121,0.154010679905417,0.0888070780549743,0.0285346358340769,0.0120443068186442,-1.2733361881841168,7.969618471156046,1.1086411795730344,0.2813946009260207,-0.3514577762453063,1.5724854471473402,0.2146910202955176,2.085219966248472,14.47347956963998,7.942175036724529,-6.531304532915452,0.0333333333333333,medium,False,False,ambiguous_boundary,0.0314096499526963,0.0510879848628193,bad_outlier,0.0314096499526963,0.0510879848628193,0.0360186061179438,outlier_low_confidence,0.0090046515294859,0,good,0.8135146,0.0013036848,0.18518169,False
25304,test,2,bad,111001,111,0.1628503715621231,0.1622370412631079,0.8184619417786598,0.1171072676645024,0.1968,0.3010408326661329,0.0,0.5311847848192329,1.1030033569997153,0.0061830850663682,0.1352962538599967,2.188163895391406,0.6176682038683207,0.0714414837746224,0.147871593818593,0.5483424078803047,25.0,65.0,4.0,1.0883552276175292,3.036837570831595,0.0301000067564773,0.8840052990497748,0.0,1.0,1.0,0.7842985865879031,0.0321873644297203,0.0152,1.0,0.0321873644297203,0.0,0.2777777777777623,0.602679119156338,-0.8053880348298458,5.007552717553735,0.0176140912730184,0.5842685010681193,0.0263208643130666,0.4293545389540875,3.323322861594902,0.088871096877502,0.3934294871794871,0.4419405079489354,0.8241379106217086,1.5690395625122793,0.2681904525003036,2.449489742783178,0.2898979485566356,25.0,22.0,19.0,0.7080466151988523,0.0928013144060967,0.6176682038683207,0.1531695092116743,0.1289896439049246,0.0650724504593711,0.0349295582766714,0.8637812036311943,0.081101491294381,0.0371759545600824,0.0132497763250899,0.0046915469026884,-0.5471338262551397,11.038749664130442,1.0928750491095804,-0.8715501408470994,0.9621187118021824,1.987089534631112,-0.4498947855959031,2.3442743599951186,16.00934216607552,10.919423494014012,-5.089918672061508,0.0,medium,False,False,ambiguous_boundary,0.0541154210028382,0.044654683065279,bad_outlier,0.0541154210028382,0.044654683065279,0.033282876064333,outlier_low_confidence,0.0083207190160832,0,good,0.8687874,0.0011902892,0.13002226,False
25380,test,2,bad,111001,111,0.1761497900883806,0.1750641679032243,1.0003549766540527,0.123291584343044,0.1792,0.2401921537229784,0.0,0.6385460734223636,1.9595086634848904,0.0064721927046775,0.1427882246673107,2.2061766477758025,0.5631952879903257,0.074278806054997,0.1336848052396209,0.6166828679495215,24.0,63.0,3.9,0.6621075455854875,2.635215991352452,0.0455770612032752,0.4182033902148235,0.0,1.0,0.9285714285714286,0.7105377400728741,0.0180640241386284,0.0152,1.0,0.0180640241386284,0.0,0.2727272727272479,0.593029543658874,-0.4346353656916192,5.016679120128218,0.0056044835868694,0.4657714402294847,0.030647469382365,0.3598319944797444,3.838476592329206,0.0592473979183346,0.4262820512820512,0.435422578161677,0.8273670818322443,1.5805470291122006,0.2453993765842122,2.494438257849294,0.286169028098801,24.0,20.0,18.0,0.7466928129497205,0.1007519885897635,0.5631952879903257,0.2180858362770014,0.1219811395819654,0.0699352252133115,0.0267673829232951,0.9101697736729518,0.0428916115096433,0.0306078519437032,0.013097836505003,0.0032329035768553,-1.104909839888499,11.764518622948938,1.7456376740254966,-1.228868151625374,1.2387257704332353,1.6355186074514778,-1.2312381303394149,2.128893409541162,17.002786350648915,11.609225621831966,-5.393560728816949,0.0,medium,False,False,ambiguous_boundary,0.0508987701040681,0.0410596026490066,bad_outlier,0.0508987701040681,0.0410596026490066,0.0311163670766319,outlier_low_confidence,0.0077790917691579,0,good,0.89328223,0.0005431108,0.10617465,False
24915,test,2,bad,111001,111,0.1615763830012648,0.1586559354915755,0.7855729031562804,0.1203988409288227,0.0912,0.1937550040032025,0.0,0.5264423118163929,1.8549032639116168,0.0085080340504646,0.0677742928266525,0.796590760751307,0.7616687715842465,0.0145287281529995,0.0756094025010031,0.4541342236757364,25.0,62.0,3.7,1.1828216135772616,2.1874359591999486,0.0639784023472116,0.1626543519360369,0.0,1.0,1.0,0.754111295884934,0.0190281777591168,0.0152,1.0,0.0105288056502283,0.0,0.235294117647045,0.6687866665542156,-0.842668099155122,3.9723398906666585,0.0048038430744595,0.3943079775885666,0.0251717126935883,0.1965479521156649,6.403847499120954,0.044035228182546,0.3413461538461538,0.5943013576915898,0.8605122701207918,1.3971298609899632,0.2888075201598737,4.109609335312651,0.1957096784462507,25.0,21.0,15.0,0.9986308464330104,0.0576841637492179,0.7616687715842465,0.1423425794200949,0.0691150225438121,0.0209361268661584,0.0059257356220003,0.9388527605983475,0.0474817833455516,0.0098518726764808,0.0031163763175899,0.0006971819281563,-1.3735521216235784,14.833562052530787,2.10531166910684,-1.2008512957317825,2.0467172503555693,1.5574628994331925,-2.3966876545219726,2.140541447265164,19.622255721213524,14.852095953886296,-4.770159767327227,0.0,medium,False,False,ambiguous_boundary,0.0575212866603595,0.0261116367076632,bad_outlier,0.0575212866603595,0.0261116367076632,0.0311069063386944,outlier_low_confidence,0.0077767265846736,2,bad,0.23227623,0.0023463925,0.7653773,True
25277,test,2,bad,111001,111,0.1475392120819461,0.146496993968175,0.7434481057524681,0.10490300977937,0.1552,0.1641313050440352,0.0,0.4334669562162715,1.6914843406158506,0.0080508366227149,0.0461990945041179,0.5738414438770932,0.7191067294539509,0.0054135663889729,0.0247051198491946,0.3573267905231228,24.0,75.0,5.1,0.5057333093903293,2.6185657844128927,0.097392890580359,0.2323981801013326,0.0,1.0,0.9285714285714286,0.7251602140679491,0.0020482298393799,0.0152,1.0,0.00085992597006,0.0,0.0,0.7266239385067881,0.7919232095607158,4.076075541357352,0.010408326661329,0.3549698476035908,0.0214613763117717,0.1453347289249834,9.751613762960591,0.0520416333066453,0.5296474358974359,0.6773977672593382,0.8776913832578412,1.4996542310422925,0.1547508194324217,4.898979485566356,0.1695208471985372,24.0,18.0,12.0,0.5027548008833969,0.0465331301093101,0.7191067294539509,0.2497802210889252,0.0231651964214602,0.0053601268245244,0.0025583615586334,0.974934582908317,0.0191358265491114,0.0045360813379047,0.0009833421737377,0.000410141312269,-1.7319828094014027,15.763215868157458,1.9172373046528768,0.2228055745970309,1.8782958670587253,2.7300774977191216,-3.5747063683792906,2.081854633453491,20.70774116105793,16.172638144949346,-4.535103016108586,0.0,medium,False,False,ambiguous_boundary,0.060170293282876,0.0198675496688741,bad_outlier,0.060170293282876,0.0198675496688741,0.031050141911069,outlier_low_confidence,0.0077625354777672,0,good,0.6653048,0.010841998,0.32385322,False
25414,test,2,bad,111001,111,0.1530759201038888,0.1521945640653846,0.8691989403963089,0.099033101066557,0.2512,0.3322658126501201,0.2,0.7576634217273621,1.4009019677764067,0.0045610148226842,0.1303765654563903,2.858492784515517,0.5470367981635722,0.0379896792861514,0.1099703181262175,0.5773916944440597,18.0,59.0,4.1,0.4979453174363331,2.9647044774105087,0.0344715676241245,0.2863488955465972,0.0,0.0,0.5,0.6633230101267159,0.0107370990133203,0.0152,1.0,0.0107370990133203,0.0,0.444444444444395,0.7037394170836669,-0.8429895389283183,6.070135418441433,0.0184147317854283,0.5572556489858496,0.0231631922871612,0.3297311908563458,4.311655246296878,0.055244195356285,0.484775641025641,0.4466190873938107,0.7839678843358998,1.5493945623487873,0.3318922960982788,3.2998316455372216,0.2325672450543258,18.0,15.0,10.0,0.6253744136195134,0.0868215531110763,0.5470367981635722,0.3018707836836345,0.1026502676928635,0.0280205989171759,0.0203809497625716,0.8932313083182029,0.0763938995693844,0.0200740946192411,0.0074000473784036,0.0029006205000891,-2.962609638742532,13.1536403528957,-1.1209503261427918,-0.4409284815724756,4.369722979968892,9.319495291549224,1.0952097035416868,-3.773525890574479,21.66237588963893,17.140867630225216,-4.521508259413714,0.0,medium,False,False,ambiguous_boundary,0.0605487228003784,0.0175969725638599,bad_outlier,0.0605487228003784,0.0175969725638599,0.0307663197729422,outlier_low_confidence,0.0076915799432355,2,bad,0.18081716,0.274174,0.54500884,True
25289,test,2,bad,111001,111,0.169228346518393,0.1692256865651924,0.7963447353243827,0.1361308646696387,0.0816,0.2409927942353883,0.0,0.2774332758755326,0.73637611954801,0.0094328448176383,0.1463223136961458,1.55119861934628,0.4606669926435813,0.0596273606170641,0.1554968309318291,0.6579844526296988,24.0,62.0,3.8,1.560334046892102,3.132102902286213,0.0285767319358119,1.2241400570119358,0.0,1.0,0.9285714285714286,0.7850124502290553,0.0505472915597412,0.0152,1.0,0.0438416629173513,0.0,0.499999999999975,0.6227369252525791,-0.4901901628836418,3.4201693720479858,0.0168134507606084,0.5739010432423177,0.0286373396089471,0.4212767873836943,3.228605181192324,0.0736589271417133,0.4150641025641026,0.4906799490728247,0.8570048337963214,1.496101389460624,0.2544590120120895,2.3570226039551585,0.297883010624303,24.0,19.0,19.0,0.7477351325248626,0.1159402610734103,0.4606669926435813,0.3134565089646421,0.129171716039004,0.068820309886498,0.0278739910923474,0.8590606383281986,0.068802738523229,0.0528912930244098,0.014899743288541,0.0043455617655508,-0.6929921859733792,9.453230315101749,0.9066790119605622,-1.015913880179122,0.5374345470456042,0.4412373944059231,-1.0496005611410626,1.092034712888959,14.791644603997115,9.04749071540235,-5.744153888594767,0.0,medium,False,False,ambiguous_boundary,0.045600756859035,0.0495742667928098,bad_outlier,0.045600756859035,0.0495742667928098,0.0304351939451277,outlier_low_confidence,0.0076087984862819,2,bad,0.36938277,0.002889041,0.62772816,True
25294,test,2,bad,111001,111,0.1464453080549358,0.1438780932812854,0.6563607299327849,0.0896287335100816,0.2144,0.5188150520416333,0.3,0.903654513161607,3.0707248248073635,0.0023227892816066,0.0867890077759511,3.736397219647812,0.7708362253671849,0.0387619089548235,0.1037162968182498,0.4932781433330622,19.0,44.0,2.5,0.486919644583796,2.943243554564894,0.0387088977608068,0.2314778868713558,0.0,0.0,0.5714285714285714,0.6508158106050856,0.0144290006812256,0.0152,0.93386709367494,0.0144290006812256,0.0,0.2142857142856989,0.5685611969847439,-1.8580912180564064,6.213394856209604,0.0304243394715772,0.2081188034504644,0.0207009128486965,0.3044207341843258,4.924434724739441,0.0592473979183346,0.3854166666666667,0.3332437729101579,0.8017776423403328,1.540634509363155,0.1693942166301049,2.494438257849294,0.286169028098801,19.0,15.0,13.0,0.5912259818321804,0.0395904973149298,0.7708362253671849,0.081781508172191,0.0956142398242182,0.0289720419650614,0.0226016082280102,0.9503884410281696,0.0207071801398983,0.0215515666598778,0.0043544136575724,0.0029983656840167,-3.7842814557123714,17.973399412776466,-2.222982611660184,-1.1697622441734363,8.33767844330442,13.934698030216946,3.370872476279766,-5.686397370878222,28.8037798884796,25.234719470237707,-3.569060418241893,0.0,medium,False,False,ambiguous_boundary,0.0650898770104068,0.0052980132450331,bad_outlier,0.0650898770104068,0.0052980132450331,0.0303500473036896,outlier_low_confidence,0.0075875118259224,1,medium,0.21541783,0.4320267,0.35255542,False
25030,test,2,bad,111001,111,0.1615579315600281,0.157051787670134,0.6289568161964416,0.1201594324539299,0.1288,0.3378702962369896,0.0,0.6164145226021676,1.7591149776855022,0.0044344067573547,0.0390698010101914,0.8810583927501149,0.7211034974944769,0.016049739321976,0.0431373649486794,0.4617838026005382,23.0,49.0,2.6,0.6558623614567995,1.6062269875388562,0.0344571750399904,0.2104246751368402,0.0,1.0,0.8571428571428571,0.7280033539040457,0.0078589372339624,0.0152,1.0,0.004540889811617,0.0,0.1333333333333244,0.6405948707123865,0.6133046084532251,2.664451298814529,0.0192153722978382,0.3178658507707369,0.0246652708693492,0.1428068056409684,9.78052796436218,0.0352281825460368,0.3509615384615384,0.4569629095928706,0.8976225958162037,1.4094495691001234,0.2251111341421132,3.741657386773941,0.2108967220595339,23.0,17.0,14.0,1.0119100980740383,0.0341515056788921,0.7211034974944769,0.2165821231399026,0.0377723135809876,0.0184533888977884,0.0060748929449035,0.984768030032846,0.0099612360402913,0.003186072170675,0.0017874611823838,0.000297177045615,-2.5045766737367914,16.41141501165721,0.5381811071417262,-1.2651379036770471,3.58078707134756,2.461994514132817,-2.9974436944285707,1.9416519294593204,21.643416912826773,16.98911475289766,-4.654302159929113,0.0,medium,False,False,ambiguous_boundary,0.0590350047303689,0.0177861873226111,bad_outlier,0.0590350047303689,0.0177861873226111,0.0301229895931882,outlier_low_confidence,0.007530747398297,0,good,0.96242577,0.00396394,0.033610348,False
25137,test,2,bad,111001,111,0.1760782508777065,0.168833609368756,0.6715372848510742,0.1411021317725506,0.0928,0.3763010408326661,0.2,0.5366777020039774,1.769426007642284,0.0036984123289585,0.0250610172748565,0.6776137240636286,0.6700945792712779,0.0071376821523903,0.0533497677520634,0.5052775895718624,20.0,49.0,2.9,0.2351776905949303,2.145196127171588,0.0338005551496135,0.1443655858447493,0.0,0.0,0.6428571428571429,0.7452101093395763,0.0032170961983861,0.0152,0.725,0.0015189473575781,0.0,0.0,0.7923616587088856,-0.1832646842075624,2.2129085164276905,0.0136108887109687,0.3671539188699346,0.0285047942758096,0.0844580675587005,13.110841931428748,0.0144115292233787,0.4046474358974359,0.5148939227384525,0.8907422804518371,1.3628202631950184,0.3358291514207469,3.741657386773941,0.2108967220595339,20.0,11.0,14.0,0.8507374774958107,0.0188194349408149,0.6700945792712779,0.2678125064832226,0.0501394867958636,0.0095222700073954,0.0024254752670938,0.9852451858135536,0.0109558688741844,0.0032891769259351,0.0003944299852101,0.0001153174046959,-3.9308065661387546,17.565917333279906,-1.2051633776160553,-1.5366268005545034,7.493842759501327,8.05013768177632,-1.271303124766905,-8.165338821090309,26.46530194569752,22.397093702191345,-4.068208243506177,0.0,medium,False,False,ambiguous_boundary,0.0631977294228949,0.0079470198675496,bad_outlier,0.0631977294228949,0.0079470198675496,0.0300283822138126,outlier_low_confidence,0.0075070955534531,1,medium,0.35202864,0.52798253,0.11998882,False
25057,test,2,bad,111001,111,0.1587554239592248,0.1587415950982133,0.6271872390806674,0.1287553928327281,0.0968,0.4395516413130504,0.1,0.5039527383488571,1.6631278969148535,0.0031086131930351,0.0291941743344068,0.9391351901322886,0.7637822984192265,0.0060753941862212,0.0334568606338373,0.4296925294202051,18.0,48.0,3.0,0.639989161789957,1.3863722415081188,0.1283464555966866,0.1789101589757967,0.0,0.0,0.5,0.7082782153870744,0.0053530070482932,0.0152,0.7911929543634909,0.0029282580218405,0.0,0.0,0.7803320980375237,0.5436290085961056,2.7434240151344795,0.0200160128102481,0.3788937198807161,0.0251989008394933,0.086369747041384,13.354647580489267,0.0264211369095276,0.2684294871794871,0.5581619095162119,0.917150933773585,1.244420448790697,0.1455716888086238,2.160246899469287,0.3164309725825327,18.0,17.0,13.0,0.8752859629733593,0.0315421968698501,0.7637822984192265,0.1956492861127917,0.0312243501410145,0.0070700483643734,0.0022628412979669,0.984563878015935,0.0128062328274487,0.0019147324123898,0.0006113873888173,0.0001037453833908,-4.170569498299924,18.346114494853207,-1.8424800025226,0.0030464957471586,4.757434813742418,5.92317529460061,-2.019849787565649,-4.376459105188872,24.990176161675624,20.63857301251352,-4.351603149162106,0.0,medium,False,False,ambiguous_boundary,0.0618732261116367,0.0100283822138126,bad_outlier,0.0618732261116367,0.0100283822138126,0.029848628192999,outlier_low_confidence,0.0074621570482497,0,good,0.56146944,0.3249126,0.11361795,False
25056,test,2,bad,111001,111,0.188745832815383,0.1680682835605061,0.6234115485846996,0.1280345752925379,0.2608,0.4979983987189751,0.2,0.8975003548744436,1.3143073637376623,0.0025236010551452,0.0297848254442214,1.1802462738263366,0.637227460652954,0.0142587663374049,0.0513010030147118,0.4851676821869708,20.0,38.0,1.8,0.6167717320462006,1.334516765447328,0.0681977732801316,0.1977143330386971,0.0,0.0,0.6428571428571429,0.7242547931477271,0.0113003601732468,0.0152,0.8963971176941553,0.0070452900118699,0.0,0.0,0.6844482249715662,-0.8769842589729598,2.586993488269149,0.0280224179343474,0.3575437419000191,0.0282469545776091,0.0928921390376541,13.824460842640107,0.0280224179343474,0.2572115384615384,0.4482723336050254,0.8490859703898621,1.2957905004413917,0.3186394907148635,3.2998316455372216,0.2325672450543258,20.0,15.0,12.0,0.9710199171858804,0.020788250863552,0.637227460652954,0.2950383562481893,0.0465662686447506,0.0154935552350874,0.0056447351693097,0.9910271338499363,0.0071181175903262,0.0011561722744423,0.0005715618110307,0.000126995701077,-4.67211161908793,18.46330462183592,-1.792227558516348,-0.5631247663553848,8.107316975661945,10.475758092863847,-0.5585096123731488,-6.075348309893871,27.84252316701506,23.77740179495643,-4.065121372058631,0.0,medium,False,False,ambiguous_boundary,0.0633869441816461,0.006244087038789,bad_outlier,0.0633869441816461,0.006244087038789,0.0297729422894985,outlier_low_confidence,0.0074432355723746,1,medium,0.28318194,0.6082025,0.108615555,False
26260,test,2,bad,111001,111,0.1615660786117346,0.1571384496369047,0.7962426516413689,0.1005268626371514,0.2744,0.433146517213771,0.1,1.0202231181660857,2.7035414132824247,0.0031831953674554,0.0309237241744994,0.9714649419311132,0.8283162952754991,0.0029248307835475,0.0292918391854116,0.3888080517253997,22.0,52.0,3.0,0.4637064688973595,1.2137811628835802,0.0490517095133835,0.2477966907825492,0.0,0.0,0.7857142857142857,0.7808233631401033,0.0033957038290441,0.0152,0.7796637309847878,0.0022653596561721,0.0,0.0,0.707889448662224,-1.649140774554287,6.35976043917045,0.0168134507606084,0.2025931976883308,0.0246924992115211,0.1060546714325903,9.768784647498205,0.0376301040832666,0.3677884615384615,0.4810490500242304,0.7473758462604315,1.3358385880894372,0.2711044690816392,3.299831645537222,0.2325672450543257,22.0,17.0,14.0,0.906400267149165,0.0296555560547857,0.8283162952754991,0.138791867171575,0.0274499614056432,0.0046146058199688,0.0008258920050661,0.984097046563606,0.0120917167835622,0.0026790540803442,0.0010283440167875,0.0001038137216291,-3.665364005121353,19.172778236349867,-0.7179975514208208,-1.5805562806011677,5.058187196007848,6.567333554720296,-1.7145484601317988,-1.7409821845555955,25.27757009080993,20.906242176598177,-4.371327914211761,0.0,medium,False,False,ambiguous_boundary,0.0616840113528855,0.0094607379375591,bad_outlier,0.0616840113528855,0.0094607379375591,0.0296499526963103,outlier_low_confidence,0.0074124881740775,0,good,0.44950595,0.13470936,0.41578475,False
24914,test,2,bad,111001,111,0.1726500182354327,0.1644521931264869,0.6457630053162575,0.1250806185772409,0.1024,0.2682145716573259,0.0,0.6936796257086294,1.588563765145432,0.0055801272392272,0.0587041899561881,1.0520205407047871,0.6318702059670779,0.0216120823378016,0.0978592308299986,0.4987279890650216,25.0,64.0,3.9,0.7496704355351425,1.519651844025463,0.0310621704663583,0.5635531070293003,0.0,1.0,1.0,0.7854863647009448,0.0149718718770324,0.0152,1.0,0.0095818177079961,0.0,0.2142857142856989,0.7425698951381411,1.063399645481662,3.3635475819773046,0.0176140912730184,0.4840894081599213,0.0270445305350675,0.1583483713003772,7.922870453710345,0.0336269015212169,0.358974358974359,0.5509555811328996,0.8632735900265537,1.4138679037872917,0.3720482257754938,4.9216076867444665,0.1688730582808622,25.0,20.0,13.0,1.0471370928526922,0.0324206681456415,0.6318702059670779,0.2451199691090002,0.090841382592444,0.0251437420745525,0.0070106764595413,0.9827454126607144,0.0099894862533874,0.0055953523497515,0.00135593141802,0.0003138021366216,-1.925025714447657,14.57119554622648,1.819879525929378,-1.560592659078808,2.873283213251807,1.613014370988746,-2.1082171663432185,1.4710480216136936,19.756443789598084,14.690216628787123,-5.066227160810959,0.0,medium,False,False,ambiguous_boundary,0.0546830652790917,0.0251655629139072,bad_outlier,0.0546830652790917,0.0251655629139072,0.0296404919583727,outlier_low_confidence,0.0074101229895931,0,good,0.96055824,0.0011708691,0.03827086,False
27021,test,2,bad,111001,111,0.1484056797488935,0.1479558324281081,0.7237873634696004,0.104470651806856,0.2032,0.2786228983186549,0.0,0.5904109801731278,1.2554328435652116,0.0078623294830322,0.0920797780156135,1.1711498621285887,0.4110849046586057,0.0193598787592706,0.1172117214346207,0.6294480130246312,21.0,58.0,3.7,1.886394623089288,2.5105966074234827,0.0302402063006238,0.6289240782446486,0.0,0.0,0.7142857142857143,0.7578888762837863,0.0470441619313421,0.0152,0.925,0.0298170194330061,0.0,0.2499999999999896,0.7409308921500346,0.4375038683501701,4.178139633500408,0.021617293835068,0.6040783339943769,0.0218909353903778,0.2762996575078313,4.141180383639202,0.0680544435548438,0.2700320512820512,0.6559176880836428,0.845933035374522,1.340714337337739,0.1926278625623445,0.9428090415820634,0.5147186257614297,21.0,21.0,19.0,0.8432105652757493,0.0924010705202818,0.4110849046586057,0.4486585916975816,0.1050312661117435,0.029153427676849,0.0060334695762,0.8251062836388168,0.1343192799458553,0.0335018002059383,0.0059193675551996,0.001153237803273,-1.963528921839902,10.987486149384544,-0.9988566713862994,-1.2778549836447186,-1.24486354330576,1.1909983283154777,-1.7834732445636692,0.961709236169344,16.77226087891646,11.084208954254787,-5.688051924661671,0.0,medium,False,False,ambiguous_boundary,0.0465468306527909,0.0429517502365184,bad_outlier,0.0465468306527909,0.0429517502365184,0.0295364238410595,outlier_low_confidence,0.0073841059602648,2,bad,0.012337113,0.0015885438,0.98607427,True
28570,test,2,bad,111001,111,0.1555691867180965,0.1477520674477765,0.6501142665743828,0.1007519987948093,0.1944,0.3258606885508406,0.0,0.6926900157739259,1.2378683751566402,0.0050236582756042,0.0397643774747848,0.7915406689547382,0.7205801913440806,0.0088105371717138,0.0431659182270872,0.432613292089845,22.0,56.0,3.4,0.4146683348015959,2.827147311599323,0.0708339685564567,0.2274267347183541,0.0,0.0,0.7857142857142857,0.7179321893554619,0.0040680771435018,0.0224,0.85,0.0018578882275531,0.0,0.153846153846142,0.7603406174887695,1.3714335398551265,4.386034762109307,0.0384307445956765,0.3617894663732866,0.021830680480051,0.1668291940517952,8.044123545692553,0.0456365092073658,0.3149038461538461,0.4479553794883437,0.8552947288896235,1.2954881939973386,0.2119648226572957,2.0548046676563256,0.3273531727209285,22.0,20.0,17.0,0.9953414439504618,0.037979818880558,0.7205801913440806,0.2265154215682668,0.040549589541311,0.0077903769427415,0.0045542209834214,0.9659474971309964,0.0266084842852712,0.0048797879958938,0.002054380890383,0.0005098216256614,-3.22360315940865,16.243300806318448,-1.1316116346732714,0.2958972526202453,1.517400509510341,2.668878944972806,-2.452940553426406,1.0914153228539638,21.48802336624279,16.715280425210025,-4.772742941032764,0.0,medium,False,False,ambiguous_boundary,0.0573320719016083,0.0183538315988647,bad_outlier,0.0573320719016083,0.0183538315988647,0.0294701986754966,outlier_low_confidence,0.0073675496688741,0,good,0.8959883,0.05732985,0.04668186,False
25532,test,2,bad,111001,111,0.1842010169365961,0.1732113839773504,0.6364086391031742,0.1393340602516662,0.1296,0.3714971977582065,0.0,0.5972889535804757,1.1987440468176824,0.0039553344249725,0.0365711931721306,0.9246019876609012,0.7610179209864197,0.004790303300435,0.0189634091852106,0.4092140638897578,21.0,57.0,3.6,0.4741558955019491,1.7947473325510708,0.0744778709376469,0.195505542555864,0.0,0.0,0.7142857142857143,0.6475198204465581,0.0019546983182572,0.0152,0.9,0.000943387020612,0.0,0.0,0.6585381851080461,-0.7847824681364283,2.4581415747067714,0.0176140912730184,0.3105276117780196,0.0300021900751215,0.0910389425069779,12.809453334385855,0.0128102481985588,0.3637820512820512,0.5838109620023484,0.9009284473152956,1.3275821322849837,0.2421813924960124,4.027681991198191,0.1988988169400271,21.0,13.0,12.0,1.071934376181262,0.0305118545889854,0.7610179209864197,0.2138452174562523,0.0171457875043853,0.0059778174906594,0.0020021292965957,0.9850504503914558,0.0124449766829996,0.0017331091568979,0.0006295488951977,0.0001418960365413,-3.4589100277634683,17.50492700183353,-0.4229716221487805,-0.4476436288773386,4.510701397921073,2.157694460628116,-4.460326679896438,-0.196741152076204,23.20946811200421,18.658209309903068,-4.551258802101138,0.0,medium,False,False,ambiguous_boundary,0.0597918637653737,0.012488174077578,bad_outlier,0.0597918637653737,0.012488174077578,0.0294039735099337,outlier_low_confidence,0.0073509933774834,0,good,0.9054134,0.06578437,0.028802171,False
25058,test,2,bad,111001,111,0.1675856830256706,0.1669014020262205,0.6253132593631744,0.1406171728168265,0.096,0.4851881505204163,0.1,0.4311163308617234,2.3814740214770374,0.0026148557662963,0.0178292021155357,0.6818400525694458,0.831562205223925,0.0035201662792843,0.0141222855152182,0.3613867601434928,21.0,38.0,1.7,0.4357704465111158,1.620807391490344,0.1280882031228206,0.1115520045841828,0.0,0.0,0.7142857142857143,0.7477742967784012,0.0022792869128607,0.0152,0.8733386709367493,0.0012093060302508,0.0,0.0,0.7282260126382559,-0.1937254836679936,2.104277682137674,0.0184147317854283,0.2005563392525,0.0278560846602901,0.0647028997609269,18.51927304396766,0.0120096076861489,0.2267628205128205,0.5086001081366562,0.930517383088891,1.2267003384285573,0.1935519320955022,4.496912521077347,0.1819203045647175,21.0,11.0,12.0,0.8850325063810446,0.0215238800272345,0.831562205223925,0.1499154511378941,0.0119253631172867,0.005279958099856,0.0013081946701262,0.995453219764276,0.0023594014806719,0.0018150460223486,0.0003025377222927,6.977361420195785e-05,-4.963450423789577,20.9898110344431,-0.8365206590153191,-0.4252264645963498,7.754331118219856,6.896444377229035,-2.6492337537791006,-4.001535153274523,28.296217046050128,24.039529103977472,-4.256687942072656,0.0,medium,False,False,ambiguous_boundary,0.0628192999053926,0.0056764427625354,bad_outlier,0.0628192999053926,0.0056764427625354,0.0294039735099337,outlier_low_confidence,0.0073509933774834,0,good,0.53655875,0.43590087,0.027540397,False
25272,test,2,bad,111001,111,0.1620427946097658,0.1591365817503463,0.9327024742960928,0.1065031288095196,0.2056,0.3650920736589271,0.1,0.5025414361645959,0.8206990646840705,0.0045879185199737,0.1871853740944056,4.079954020196383,0.2216833202790357,0.1019648595890051,0.3441484042014673,0.7891991857834117,22.0,52.0,3.0,1.4888195809029154,4.19283896739933,0.0321982312285672,1.1827489105876652,0.0,0.0,0.7857142857142857,0.7343735823797832,0.1280937207279089,0.0152,0.8157188767120411,0.1280937207279089,0.0,0.59999999999996,0.7087414252063822,-1.072870191061965,6.171523266660294,0.0160128102481985,0.7883172102716253,0.0253244584684531,0.5026842834343737,2.7644805327046806,0.0792634107285828,0.4302884615384615,0.4926424613875461,0.7844530080024923,1.501782891630103,0.2070350523068811,2.449489742783178,0.2898979485566356,22.0,19.0,16.0,0.6374461039132687,0.1084121111780405,0.2216833202790357,0.3184166512313755,0.3097436727037697,0.1101230118092708,0.0399517893463488,0.7430727856753511,0.1805640264552477,0.0473992100177093,0.023668973901187,0.0052949768984104,-1.846090911049478,7.5927844179326,-0.8885960832555467,0.4350099562948938,1.0871469807682466,3.325575776913192,3.10893074718268,-3.10649648694091,15.37770879274856,9.57188186405248,-5.805826928696078,0.0,medium,False,False,ambiguous_boundary,0.0442762535477767,0.0471144749290444,bad_outlier,0.0442762535477767,0.0471144749290444,0.0293472090823084,outlier_low_confidence,0.0073368022705771,2,bad,0.43745807,0.031210821,0.53133106,True
25052,test,2,bad,111001,111,0.1684223323037273,0.1667200888618716,0.7087705862522125,0.1357696325797704,0.088,0.2650120096076861,0.0,0.3514484875605888,1.2695364827521216,0.0055538001470267,0.0651169285178184,1.1724730733310835,0.725024156031145,0.0166493601932166,0.1220162635837938,0.4817425232790629,22.0,48.0,2.6,1.0687584255916578,2.4776891270230488,0.090136654297783,0.3039040358460391,0.0,0.0,0.7857142857142857,0.725759184999886,0.0362238638234423,0.0152,0.65,0.0226426536344742,0.0,0.1764705882352837,0.7796086249382121,-0.066045214057813,2.895315493669969,0.0128102481985588,0.4067794734648334,0.0277955946957086,0.240983558594305,5.507403464543999,0.0264211369095276,0.2467948717948718,0.4331186511837099,0.8987671479112804,1.3358676927172493,0.1792649596694934,3.0912061651652345,0.2444266946297027,22.0,16.0,15.0,0.7351052726450159,0.066895043849945,0.725024156031145,0.1346311631913924,0.1101443149416748,0.0235531478286378,0.0066141537715341,0.9260224008514916,0.0414675120727727,0.0286197326469237,0.0028394776453997,0.0010508532018374,-3.05586277985269,14.29029230879701,-0.6668860065814428,0.8728315679017066,1.264675971751414,-1.0440700490901833,-1.5565269721742756,-1.6346979722364223,19.72258574261268,14.62315247927232,-5.0994332633403605,0.0,medium,False,False,ambiguous_boundary,0.0537369914853358,0.0255439924314096,bad_outlier,0.0537369914853358,0.0255439924314096,0.029290444654683,outlier_low_confidence,0.0073226111636707,0,good,0.94696844,0.03048446,0.022547096,False
25065,test,2,bad,111001,111,0.1708774392841144,0.1663956665110328,0.7187370505928993,0.1189540464671969,0.1448,0.3795036028823058,0.0,0.7073129057466,2.1947942305394585,0.0037595033645629,0.041089105606079,1.092936814466021,0.8792850737636076,0.0079191432416553,0.0470207590724115,0.3274289744118297,19.0,43.0,2.4,0.4965328152595943,1.9373364133481323,0.0488800049627952,0.2844384388699369,0.0,0.0,0.5714285714285714,0.7416951551603455,0.0068668676111375,0.0152,0.6831064851881505,0.0046026126756268,0.0,0.0588235294117612,0.7194622195535859,-1.1565429512409136,3.6597725369883287,0.0192153722978382,0.2428150154275913,0.0276875245057376,0.1466914535219574,8.473259792076547,0.0360288230584467,0.2459935897435897,0.4833677104284899,0.8365833420454494,1.291019293328293,0.3474262492496981,2.943920288775949,0.2535548202751237,19.0,17.0,12.0,0.9886503418815056,0.0359318118542432,0.8792850737636076,0.0644846429263355,0.0433723390005232,0.0098457311645412,0.0030099992263862,0.966311023114305,0.0218663878694853,0.0099055067620297,0.0015390264258963,0.0003780338288629,-3.799320966351487,17.97488327159678,-1.8115895055588145,-0.9748566195489132,3.057740388051615,1.1170435968913484,-2.555668371721882,-0.459378238062177,23.22566470598981,18.57482569883276,-4.65083900715706,0.0,medium,False,False,ambiguous_boundary,0.0594134342478713,0.0122989593188268,bad_outlier,0.0594134342478713,0.0122989593188268,0.0291958372753074,outlier_low_confidence,0.0072989593188268,0,good,0.9144536,0.061655726,0.023890642,False
25055,test,2,bad,111001,111,0.1843380345600353,0.173119277133816,0.6640977711975573,0.1296912280736374,0.1472,0.3490792634107286,0.0,0.6821459155684195,1.8073717126609168,0.004161462187767,0.0369915053248405,0.8889043025105376,0.8520173928815211,0.0071444377702694,0.0266985209050275,0.3940070847012639,22.0,51.0,2.9,0.4135533891857741,1.9674913413565007,0.0465651463462268,0.189199627228787,0.0,0.0,0.7857142857142857,0.7314336479239926,0.0028310932837234,0.0152,0.725,0.0015586705530372,0.0,0.0,0.7359246013260776,-0.94876896600913,2.896275037872761,0.010408326661329,0.266472752819504,0.0299702906529495,0.1209999307705576,10.757591914473837,0.0240192153722978,0.2684294871794871,0.4895899729205263,0.8432180627452369,1.315969723639998,0.2001957766078874,3.39934634239519,0.2273064955953337,22.0,16.0,14.0,0.8258817259837271,0.0342104917392134,0.8520173928815211,0.112980419132392,0.0247349585039476,0.0076243041799691,0.0026392924178347,0.9849390570488,0.0108680002981416,0.0026665263918806,0.0012642979775714,0.000262098567445,-3.437420758435487,17.7042500099379,-0.43546809271999,-1.0858409499368016,3.720177388891425,1.4247406691130398,-3.524288328474693,-0.6500004913225563,23.0436625688701,18.36675769274323,-4.676904876126869,0.0,medium,False,False,ambiguous_boundary,0.0588457899716177,0.0132450331125827,bad_outlier,0.0588457899716177,0.0132450331125827,0.0291296121097445,outlier_low_confidence,0.0072824030274361,0,good,0.91110426,0.039986886,0.048908938,False
25148,test,2,bad,111001,111,0.1625913720860866,0.159168475151028,0.6495380988717078,0.1184310094173299,0.1512,0.4275420336269015,0.0,0.6532618795496336,1.4167868279419693,0.0031382963061332,0.0295211315155029,0.9406708152677457,0.6826548041904378,0.0075569253845287,0.0368173372561404,0.4570593978559113,23.0,56.0,3.3,0.4122043641215546,1.841863862761001,0.052692519098377,0.2392666785178043,0.0,1.0,0.8571428571428571,0.7838727594310066,0.0035293644400735,0.0152,1.0,0.0018520491078731,0.0,0.0,0.7526571550261315,-1.0363428998369972,3.3924329893383565,0.0200160128102481,0.3567022091878736,0.025334610298534,0.0916720144343822,13.505848552125215,0.0128102481985588,0.3677884615384615,0.5433999295828251,0.869414597806792,1.35513898603746,0.3446829898681086,4.96655480858378,0.1676009074049484,23.0,13.0,12.0,0.988537774861058,0.0260126955807209,0.6826548041904378,0.2716812415063938,0.034379735672109,0.0081788982157026,0.0031050848780918,0.9872907193275794,0.0095578205152608,0.002443920568379,0.0005645541079348,0.0001429607915806,-3.074356928249744,17.270346561807482,0.6027574603704263,-1.0364988181645705,4.098045794641783,3.32564912392061,-3.351471108121894,1.2681031957493327,22.813440922802364,18.1188254951116,-4.694615427690771,0.0,medium,False,False,ambiguous_boundary,0.0586565752128666,0.0136234626300851,bad_outlier,0.0586565752128666,0.0136234626300851,0.0291201513718069,outlier_low_confidence,0.0072800378429517,0,good,0.9581987,0.027148934,0.014652339,False
25408,test,2,bad,111001,111,0.1644453419265548,0.1644200527822924,0.6213937070965767,0.1358993836579844,0.1112,0.5292233787029623,0.0,0.5277753882295041,2.3450804278814195,0.0022920817136764,0.0179975822567939,0.7852034082844928,0.7951025147961228,0.0038137745740997,0.025524769063593,0.3603307923849496,18.0,38.0,2.0,0.3851051862530132,1.0052924532580227,0.0959008465423418,0.0603392662631233,0.0,0.0,0.5,0.6698252912945363,0.0032765736481,0.0152,0.9526020816653322,0.0018469030171496,0.0,0.0,0.7569182782271197,-0.0209649889293301,2.123870533780864,0.032826261008807,0.2473346113514873,0.0270339604685308,0.0519778922153108,19.965983085652297,0.0160128102481985,0.2756410256410256,0.5785835532556842,0.9622731325806344,1.260675058395709,0.1202561633700021,3.0912061651652345,0.2444266946297027,18.0,11.0,12.0,0.8689310040910049,0.0191397269722074,0.7951025147961228,0.1743462777062452,0.0237759751362966,0.0057464190468444,0.0010273828458885,0.9958638663043632,0.0028581357617803,0.0009916959721208,0.0002561705815584,3.0109549578979425e-05,-5.058040584851524,20.88394901887268,-1.8780793765773365,-1.098044627562028,6.5192851224496255,4.323315840535474,-4.774056075325125,-0.5904461971156565,27.480364668285777,23.10738768770065,-4.372976980585122,0.0,medium,False,False,ambiguous_boundary,0.0614947965941343,0.0066225165562913,bad_outlier,0.0614947965941343,0.0066225165562913,0.0289971617786187,outlier_low_confidence,0.0072492904446546,0,good,0.7134423,0.27760503,0.008952592,False
25546,test,2,bad,111001,111,0.1549316757880555,0.1493037442436392,0.7915933486819268,0.1058981048975721,0.1472,0.3947157726180945,0.0,0.781541118359747,2.2370363463244383,0.0038478076457977,0.0536527339369058,1.394367895669404,0.7637242334844385,0.0090630457038632,0.0300070179532885,0.4317196091343655,19.0,50.0,3.1,0.9021633354435687,2.0310794057565267,0.0651177854263482,0.3730918549303189,0.0,0.0,0.5714285714285714,0.6524388409633599,0.006602739366696,0.0152,0.775,0.0051849233706793,0.0,0.0526315789473656,0.6486912517828053,-1.0058970645301877,4.71370457627199,0.0176140912730184,0.3068141209205706,0.0222916150590952,0.152968828398875,8.698218795665104,0.0336269015212169,0.3782051282051282,0.4920678926051555,0.824702053512166,1.369888248503076,0.1995093776670787,3.741657386773941,0.2108967220595339,19.0,16.0,10.0,0.9135224905227248,0.0442316565662622,0.7637242334844385,0.1954273897050128,0.0268465819005986,0.0101369296086338,0.0038591216862358,0.9783857698856498,0.0140986301343594,0.0053896157396677,0.0016094604879334,0.0005164958722078,-3.6841666734169833,17.44567100085411,-1.3275579501752777,-0.280997386050386,2.764351714766777,1.293793077592306,-2.791489986822448,0.7377782884852284,22.712767712379883,17.991731991978636,-4.721035720401247,0.0,medium,False,False,ambiguous_boundary,0.0578997161778618,0.0143803216650898,bad_outlier,0.0578997161778618,0.0143803216650898,0.0289309366130557,outlier_low_confidence,0.0072327341532639,0,good,0.96696,0.01832943,0.0147106135,False
25381,test,2,bad,111001,111,0.166197541255569,0.1653079540349791,0.8281138536334038,0.1271805241629947,0.136,0.2297838270616493,0.0,0.509123308065138,1.885406787460882,0.0061896673869341,0.0726529181003569,1.1737755226745836,0.6592667286627405,0.0275913627588808,0.0782637591493293,0.519859888420332,19.0,55.0,3.6,0.8708320285481087,2.772960961416594,0.1013420441119997,0.1718591842232842,0.0,0.0,0.5714285714285714,0.7285605781815259,0.0148162148134371,0.0152,0.9,0.0109810525611384,0.0,0.3749999999999766,0.6600153467606092,-0.2468133499295582,3.531468712391444,0.0088070456365092,0.4662779864058047,0.0273267263610717,0.2897238742784932,4.833478585716798,0.0472377902321857,0.3790064102564102,0.4063394162417471,0.8611011168806875,1.448246680779261,0.1760387287549714,2.449489742783178,0.2898979485566356,19.0,16.0,13.0,0.7756411897178623,0.0687475010752679,0.6592667286627405,0.2309380398273513,0.0667918102935623,0.0295242973378127,0.013472240225884,0.9313764740737986,0.0414749828698748,0.0201448495068007,0.0049233465047362,0.0020803229260087,-2.7954358654027804,13.641031427116856,-0.3709466072624722,-0.1891444652000986,0.4524708781032278,0.8142448595096641,-2.316458047651848,0.4656451610603171,19.07618380228148,13.68609346369758,-5.390090338583899,0.0,medium,False,False,ambiguous_boundary,0.0514664143803216,0.0287606433301797,bad_outlier,0.0514664143803216,0.0287606433301797,0.0289120151371806,outlier_low_confidence,0.0072280037842951,0,good,0.89326775,0.0028621077,0.103870146,False
25305,test,2,bad,111001,111,0.1731610601427057,0.1688819002966832,0.7969247590005397,0.1134523048685398,0.112,0.4723779023218575,0.1,0.857532935152512,2.254274264913982,0.0028675496578216,0.1126799911260604,3.929473300362229,0.6344185682192949,0.0494034383399265,0.1248201629442758,0.5755552935036146,21.0,45.0,2.4,0.5922327339320196,3.839544934942013,0.0581688775373313,0.2979105233243921,0.0,0.0,0.7142857142857143,0.7353268243950408,0.0217419371618613,0.0152,0.8502802241793436,0.0217419371618613,0.0,0.230769230769213,0.5797422804094741,-1.909857666835496,7.062565123410793,0.0240192153722978,0.6970629365333096,0.0285211028701809,0.3407803142855849,4.22417897780453,0.0376301040832666,0.4206730769230769,0.3882088478699598,0.7788516699627336,1.562397204191967,0.2337353141747197,3.299831645537222,0.2325672450543257,21.0,18.0,13.0,0.5989373502831021,0.0693365888670086,0.6344185682192949,0.1842991001823115,0.1065413462841594,0.0538353980178332,0.0207561377575425,0.9381851467182012,0.0283916373741457,0.0218462500962641,0.0087860992114358,0.0027908442841902,-3.1814934040000327,13.906888929157985,-0.8838923782707339,-0.0046265763058509,3.496842786450065,4.6936576343939205,2.0230451842993373,-2.19601299340883,20.42138701656029,15.380273824211203,-5.041113192349089,0.0,medium,False,False,ambiguous_boundary,0.0548722800378429,0.0210028382213812,bad_outlier,0.0548722800378429,0.0210028382213812,0.0288930936613055,outlier_low_confidence,0.0072232734153263,0,good,0.7283328,0.034883674,0.23678352,False
26976,test,2,bad,111001,111,0.1565802652354586,0.1561075231489915,0.6361811752617359,0.1217065905303577,0.1032,0.6501200960768615,0.2,0.6214074292634005,1.6497560857069706,0.0015947893261909,0.037220200151205,2.3338484999302405,0.6408817209749609,0.0107773441688547,0.0642967650283674,0.5011146684209313,15.0,35.0,2.0,0.8086547449107715,1.6768658144270592,0.1063061424739378,0.2056546010981601,0.0,0.0,0.2857142857142857,0.6300619016409996,0.017331294707534,0.0152,1.0,0.017331294707534,0.0,0.0,0.7272143784478184,-0.7298668670663035,2.922231484580701,0.032826261008807,0.4071684745442689,0.0243695656615625,0.1286380642068311,9.498523010553097,0.0160128102481985,0.21875,0.4217523051408791,0.9102716950901756,1.308585957208056,0.3237418072782165,3.0912061651652345,0.2444266946297027,15.0,14.0,8.0,0.970550653086221,0.0133999262005089,0.6408817209749609,0.2810346990422745,0.0598089988282301,0.0147929678786671,0.0034403581025773,0.9667594476814496,0.0291958484303844,0.0023896636431315,0.0013556932404985,0.0002993194153017,-5.166932861118993,17.520926286373616,-3.066396235107255,0.4479167173717289,6.731036339551983,9.480873403092833,0.7557313196311303,-5.128516593888825,26.620275447985826,22.116536925682635,-4.503738522303188,0.0,good,False,False,ambiguous_boundary,0.0607379375591296,0.0077578051087984,bad_outlier,0.0607379375591296,0.0077578051087984,0.028883632923368,outlier_low_confidence,0.007220908230842,1,medium,0.25765866,0.57137406,0.1709673,False
25387,test,2,bad,111001,111,0.1737721722697793,0.1682263247931683,0.7227605301141738,0.1388292610568925,0.068,0.2810248198558847,0.0,0.4491792942529166,1.7968677781066156,0.0055670589208602,0.0504472643136977,0.9061727999211128,0.6888454483031117,0.0274258640502878,0.0474352437907207,0.4198384388725854,23.0,57.0,3.4,0.8570919028216597,2.239195911898637,0.0774834127695057,0.259241104701548,0.0,1.0,0.8571428571428571,0.733981258048669,0.0092400825821359,0.0152,1.0,0.0058812987984489,0.0,0.2631578947368282,0.6064990401081275,-0.428427723196352,2.5548907773799376,0.0096076861489191,0.4216015615768415,0.0283001029888901,0.2183851744257603,6.728922643723062,0.0200160128102481,0.3485576923076923,0.4088137101858449,0.8875048905296588,1.4418241824711275,0.3638301859506725,4.496912521077347,0.1819203045647175,23.0,13.0,14.0,0.7854662551935219,0.0404401853680609,0.6888454483031117,0.2333918726188318,0.0445056517882434,0.021005274893531,0.0121986355812136,0.960345890321496,0.0300060380599808,0.005398754819413,0.0033087533509826,0.0009405412518613,-2.4467738029386648,14.486017097667684,1.35776205887514,-0.5973430950446597,2.4353084892695063,0.9470255421208154,-2.3836549301046817,1.3224972728158595,19.80053917847289,14.581815921743962,-5.218723256728927,0.0,medium,False,False,ambiguous_boundary,0.0531693472090823,0.0245979186376537,bad_outlier,0.0531693472090823,0.0245979186376537,0.0288457899716177,outlier_low_confidence,0.0072114474929044,0,good,0.9984669,0.00021954614,0.0013135023,False
25064,test,2,bad,111001,111,0.173654135578572,0.1693555361563113,0.5992502444982528,0.1322182768024504,0.1008,0.4939951961569255,0.0,0.5307839601279084,2.127496543699747,0.0026157349348068,0.030677717924118,1.172809990603446,0.8915892082145214,0.0034291934478804,0.0188964581045488,0.2759707797246611,19.0,31.0,1.2,0.7913084151714533,2.0462136846926224,0.0478874720879152,0.164783772933386,0.0,0.0,0.5714285714285714,0.6862682924788134,0.0067967846886655,0.0152,0.889191353082466,0.0045702137623782,0.0,0.0909090909090826,0.6938492422811919,-0.7455695111368252,2.4714907506886785,0.0256204963971176,0.1506083852659497,0.028681304239681,0.1087490348328779,12.72655225856811,0.0176140912730184,0.2307692307692307,0.3947529057437717,0.9078657789607087,1.2809037829301495,0.398476344332089,3.2998316455372216,0.2325672450543258,19.0,16.0,11.0,1.0333765413429885,0.0185045961290597,0.8915892082145214,0.0851114561110788,0.0171168860996533,0.0043477750694721,0.0018311895808283,0.9885229258957772,0.007858060302004,0.0024034524716752,0.0009344654742377,0.0002810734707035,-4.538027331232608,19.308851681599883,-1.9603320165992053,-1.1487120151636183,5.281539006703807,2.579804469869916,-3.412391372348316,0.3583945720364806,25.28377231779362,20.73645089168747,-4.547321426106151,0.0,medium,False,False,ambiguous_boundary,0.0599810785241248,0.0092715231788079,bad_outlier,0.0599810785241248,0.0092715231788079,0.0288457899716177,outlier_low_confidence,0.0072114474929044,0,good,0.8476685,0.14608195,0.0062494865,False
25062,test,2,bad,111001,111,0.1751202981117381,0.1638118855494403,0.6114777806401253,0.1330672668921033,0.176,0.4827862289831865,0.0,0.519846666518439,2.0600426653059065,0.0026982629206031,0.0379994552582502,1.4082880559671502,0.9076450224348068,0.0040034438057015,0.0293097485876637,0.2438415620597544,18.0,39.0,2.1,0.5623029693216891,2.0181487021072653,0.0756349876954539,0.1885975763899881,0.0,0.0,0.5,0.6359959249451913,0.0053164382777146,0.0152,0.8690152121697359,0.0039833568278908,0.0,0.0909090909090826,0.731131193128277,-0.3101593242338615,2.1660491792678727,0.0224179343474779,0.2014974511476729,0.0268343405710253,0.1249226508334166,10.104389453826794,0.0200160128102481,0.2884615384615384,0.4467333158995611,0.8896317479164264,1.3058363026010191,0.2406170090913276,3.265986323710904,0.2344123783149211,18.0,14.0,10.0,0.8302893977947772,0.0259600028395652,0.9076450224348068,0.0569739311124451,0.0274584650326051,0.0066153810002118,0.0013061994361934,0.9793097168706324,0.0164175810826638,0.0027196864529953,0.0013328164571127,0.0002201771740154,-4.458358638250607,18.41653254996508,-1.8545677604602613,-0.1469199007955037,4.378298931555201,2.076054475021123,-3.406768368019904,0.5037754269931597,24.291401981276906,19.64052172311345,-4.650880258163447,0.0,medium,False,False,ambiguous_boundary,0.0592242194891201,0.0105960264900662,bad_outlier,0.0592242194891201,0.0105960264900662,0.0287701040681172,outlier_low_confidence,0.0071925260170293,0,good,0.91923946,0.072125584,0.008634978,False
25423,test,2,bad,111001,111,0.1557983310954832,0.1557974635627416,0.8071143144369125,0.1068688412700721,0.2736,0.2746196957566053,0.1,0.4612810856889763,1.4641620066840777,0.0054551139473915,0.0902078121900553,1.6536345105997134,0.3849452572702549,0.0280070585257383,0.1195996464521719,0.6396728637619289,23.0,64.0,4.1,0.6606459988582559,2.934863297228098,0.0571456992530738,0.2476358636646284,0.0,1.0,0.8571428571428571,0.7254614635249619,0.0154927505673508,0.0152,1.0,0.0133488515602281,0.0,0.5454545454544959,0.7115942760266935,-0.7112030201248833,4.874636956998156,0.0088070456365092,0.6556310873886797,0.0242728565366346,0.3228549927437937,3.976189135002208,0.0656525220176141,0.4110576923076923,0.4264667185007655,0.8157222885868806,1.3325614504172425,0.1786640687058028,2.494438257849294,0.286169028098801,23.0,19.0,17.0,0.6983324642056314,0.0695445984601974,0.3849452572702549,0.4613934651560861,0.1124020509208879,0.0326193560529709,0.0085810603125754,0.8401635615077231,0.1062169904425412,0.0436221334192484,0.0082393393394604,0.0017579469978846,-1.8451715860593247,10.771066847852188,1.2246076417617593,-0.0533477804340827,0.7280149072755802,4.672064772652506,-0.1206335448881808,-1.176845649642312,17.10238616581932,11.355311058868985,-5.747075106950335,0.0,medium,False,False,ambiguous_boundary,0.0454115421002838,0.040491958372753,bad_outlier,0.0454115421002838,0.040491958372753,0.0285335856196783,outlier_low_confidence,0.0071333964049195,2,bad,0.039790783,0.008082391,0.95212686,True
25059,test,2,bad,111001,111,0.2020775103558872,0.1848113723759527,0.6325271400809287,0.1477426345814252,0.1496,0.3562850280224179,0.0,0.598619639222227,1.9323002401036016,0.0052040442824363,0.0498831555247306,0.9585441046048616,0.8404959133773049,0.0042810920488068,0.0205623245692424,0.3659083948443667,22.0,52.0,3.0,0.7920916191774037,1.8991382372740364,0.0590080517144342,0.2569533000098036,0.0,0.0,0.7857142857142857,0.7416763661242491,0.0040718112405256,0.0152,0.75,0.0023537098068564,0.0,0.1111111111111049,0.7253089036294452,-0.7383296563159857,2.150010666872566,0.0120096076861489,0.29364251616449,0.0341552496632557,0.1153391451868804,10.23386903409902,0.032826261008807,0.2331730769230769,0.5957934809635514,0.8785322012537193,1.3148433297507276,0.1859781826795369,3.0912061651652345,0.2444266946297027,22.0,15.0,16.0,0.8564866486206049,0.0369721055030822,0.8404959133773049,0.1335585210996716,0.0185892109272006,0.0058299069569883,0.0015232500664009,0.9852514361160284,0.0096703965060983,0.0040316454823163,0.0009051056821392,0.0001414025303805,-3.479012505572663,17.209512959717195,-0.2588500609897256,-1.3206799783286745,3.919947570099034,1.1038090185638558,-3.5994473143254795,-1.0953978431454805,22.757168579245526,17.960486697159,-4.796681882086528,0.0,medium,False,False,ambiguous_boundary,0.0569536423841059,0.0141911069063386,bad_outlier,0.0569536423841059,0.0141911069063386,0.0284673604541153,outlier_low_confidence,0.0071168401135288,0,good,0.8068802,0.035951383,0.1571685,False
26953,test,2,bad,111001,111,0.1338114338836231,0.1310247209916725,0.669403687119484,0.0747131667888802,0.2824,0.7197758206565252,0.2,1.089041556775527,2.7310158918853524,0.0009378977119922,0.0319599539041519,3.407579817876104,0.8096621731001316,0.0047674634953379,0.036572624744583,0.4335772652075755,15.0,30.0,1.5,0.6592932337643894,1.8151606146290808,0.1162370588678204,0.2431704957540913,0.0,0.0,0.2857142857142857,0.5429753366678194,0.009644833614043,0.0152,1.0,0.009644833614043,0.0,0.0,0.7770578982398533,-1.8046428617775865,6.912411566167588,0.0864691753402722,0.4950755737108342,0.0171674848904513,0.1130558864264862,9.52396351133137,0.0248198558847077,0.2876602564102564,0.3948874927591921,0.7542766459734208,1.2723413507514705,0.3039877776906592,2.0548046676563256,0.3273531727209285,15.0,13.0,10.0,0.8691585404430412,0.0175227197818457,0.8096621731001316,0.1481456178788759,0.0334466667236465,0.0072040219710495,0.0015202076937669,0.976436876160022,0.0169232479672679,0.005554306244935,0.0009330667622303,0.0001524673122627,-6.679185247985712,21.04744601106648,-4.841042096278108,1.4850197422701812,7.636650462784966,12.428915214820382,2.431044937557672,-2.462029000529783,31.10260839509758,26.66075318491501,-4.44185521018257,0.0,good,False,False,ambiguous_boundary,0.0611163670766319,0.0047303689687795,bad_outlier,0.0611163670766319,0.0047303689687795,0.0284484389782402,outlier_low_confidence,0.00711210974456,1,medium,0.20595102,0.6209259,0.17312308,False
25594,test,2,bad,111001,111,0.2228524939293127,0.2218600932443741,1.490629180073738,0.119335848710197,0.2144,0.1817453963170536,0.0,0.7730619710643261,1.0753981932734644,0.0119560956954956,0.1748954162001605,1.46281256334202,0.2671724907949943,0.1159095401745829,0.2514827533709416,0.7857853511266789,24.0,78.0,5.4,0.6832446594002195,5.998810721070678,0.0237943100966242,0.4071296314611719,0.0,1.0,0.9285714285714286,0.7983542382258467,0.0268475387768685,0.0152,1.0,0.0268475387768685,0.0,0.692307692307639,0.5781270372272985,-3.54629901086404,24.661850905750285,0.0064051240992794,0.7831318117609244,0.0492219065372006,0.5882451574496493,2.4763240520111944,0.0904723779023218,0.469551282051282,0.2901145992553542,0.614829169195577,1.5530082080037164,0.1804263826311572,2.0548046676563256,0.3273531727209285,24.0,21.0,19.0,0.6697826351174427,0.1388238482177257,0.2671724907949943,0.3424106521280529,0.2159045636317664,0.1309411142610731,0.0426277265493836,0.7333409340963652,0.1608279651199781,0.0590926217765401,0.0376879114105551,0.0090505521775272,-0.8628015214786823,6.333869247926737,2.519009416186129,-0.7237066510249043,-0.7222134769357887,1.9799975372222327,-1.18859498135327,1.3238854851434518,13.681385050454702,6.290164946393706,-7.391220104060996,0.0333333333333333,medium,False,False,ambiguous_boundary,0.0126773888363292,0.0552507095553453,bad_outlier,0.0126773888363292,0.0552507095553453,0.0284216335540838,outlier_low_confidence,0.0071054083885209,2,bad,0.14315303,0.00061740243,0.8562295,True
26253,test,2,bad,111001,111,0.1425740055646804,0.1419618007411691,0.7236766737699509,0.106765878128109,0.1104,0.4187349879903923,0.0,0.6372966169851041,1.4461078856081668,0.0035535767674446,0.0228764116764068,0.6437555397826198,0.6303200691415849,0.0050406776351868,0.0308785264743015,0.481132858696449,17.0,45.0,2.8,0.6088121549197242,1.8109662406338216,0.0678805218073725,0.157831638987937,0.0,0.0,0.4285714285714285,0.6301673758516924,0.0049471637483066,0.0152,0.7537229783827062,0.0020490644474483,0.0,0.0,0.7738007204689554,-0.501802812302509,3.7212725048924833,0.0112089671737389,0.4382945397946727,0.0201531600304395,0.0897935289076147,12.075892972562464,0.0192153722978382,0.4615384615384615,0.5331991480654033,0.8601649386109342,1.2878161800110803,0.3111502781351616,2.494438257849294,0.286169028098801,17.0,13.0,11.0,0.6135395419460548,0.0177756071090698,0.6303200691415849,0.3324188369610599,0.0282631579605676,0.0075950213769671,0.0013977360566343,0.9861607998092816,0.0108161852592177,0.0022352852813048,0.000696455495323,9.12476553874824e-05,-4.049471128180827,16.548406580462654,-2.13510857932606,0.0116934768244414,1.7171954843703268,1.3196352708642516,-3.802013833779093,-0.7972807855859372,22.32886277981132,17.45939121777855,-4.869471562032768,0.0,medium,False,False,ambiguous_boundary,0.0561967833491012,0.0155156102175969,bad_outlier,0.0561967833491012,0.0155156102175969,0.0283916745506149,outlier_low_confidence,0.0070979186376537,0,good,0.9351069,0.06042474,0.0044684196,False
25407,test,2,bad,111001,111,0.1659064362672523,0.1658475793157147,0.6059227693080902,0.1388747743749816,0.0928,0.3819055244195356,0.0,0.4108177644570664,2.0151668641157565,0.0036490857601165,0.0254453241825103,0.6973049175803889,0.802151258187841,0.0026102892362788,0.0228199915514912,0.3696048945740299,20.0,38.0,1.8,0.8269848949790852,1.7465074817475552,0.1138083478964488,0.1557122068205862,0.0,0.0,0.6428571428571429,0.7620177013335987,0.0067399243987977,0.0152,0.6874299439551641,0.0032998715614652,0.0,0.0,0.8361978267747151,0.2173903030821891,2.070932143195482,0.0176140912730184,0.3562092851577629,0.0275054262479308,0.072547553857236,13.12123120319179,0.0120096076861489,0.2748397435897436,0.6248738503642515,0.9357156513498868,1.2066403911296513,0.1396537998760517,3.771236166328253,0.2095892898903721,20.0,12.0,12.0,0.7171535358507194,0.0216872811317443,0.802151258187841,0.1718762479090724,0.0213606675638217,0.0037121880231002,0.0008953611032573,0.988824383084194,0.0083823132940347,0.0022927995049702,0.0004516528567186,4.882909285635665e-05,-4.463900029476435,18.3312771735283,-1.2932559332246345,0.3039510702251641,3.5672604708694,0.8402204436959095,-2.9816698754685085,-2.147761530906932,24.04113353926298,19.282889393155063,-4.758244146107916,0.0,medium,False,False,ambiguous_boundary,0.0577105014191106,0.0109744560075685,bad_outlier,0.0577105014191106,0.0109744560075685,0.0281646168401135,outlier_low_confidence,0.0070411542100283,0,good,0.9394186,0.05605205,0.0045293253,False
25200,test,2,bad,111001,111,0.1719717856950874,0.1719717178315423,0.7408564549684524,0.1335811429486842,0.0712,0.4179343474779823,0.0,0.4712618505344976,1.5124088523294512,0.0034357830882072,0.0989787966012953,2.8808136596182896,0.5223182732448616,0.0262361290856383,0.1402557505146915,0.6091344171370296,19.0,48.0,2.9,1.100558543767305,2.493508248007129,0.0607156500754372,0.6079412724936639,0.0,0.0,0.5714285714285714,0.6998105576708809,0.0395794011644716,0.0152,0.7522818254603683,0.0395794011644716,0.0,0.3124999999999805,0.6113995569512103,-0.845060595011509,5.72503107944444,0.0184147317854283,0.488171125469553,0.0295742782944973,0.2619905953632969,4.92076551505033,0.0424339471577261,0.3886217948717949,0.4053954103276568,0.8235814117089598,1.4206848846650522,0.2745163443492036,2.8284271247461903,0.2612038749637414,19.0,19.0,13.0,0.7628526678881692,0.0805400602519512,0.5223182732448616,0.3055006721349672,0.1248273255355201,0.0376253490075631,0.0097243408146871,0.8812244472319729,0.0956247287091973,0.0169205681707625,0.0046963619126271,0.0015338705606616,-3.3556975918059297,12.620079021883912,-1.3103043789486868,0.2442972460727401,1.1250328249866226,-0.6205340750941994,-0.8247960904066916,-1.2376211571272573,18.66338906103496,13.021257588337834,-5.642131472697125,0.0,medium,False,False,ambiguous_boundary,0.0482497634815515,0.0319772942289498,bad_outlier,0.0482497634815515,0.0319772942289498,0.0281078524124881,outlier_low_confidence,0.007026963103122,0,good,0.96008474,0.030070683,0.00984466,False
27002,test,2,bad,111001,111,0.1517052985400731,0.1507020376705697,0.7816426584124565,0.1092491217275906,0.1568,0.3602882305844676,0.0,0.5074429453571223,1.3563284586741278,0.0042396113276481,0.0515608832240104,1.2161671819075568,0.5964969453415329,0.0110862250759469,0.0852602420237828,0.5078244698425473,23.0,52.0,2.9,0.7847602788284816,2.5297109022001725,0.0699897367519788,0.3038881362371485,0.0,1.0,0.8571428571428571,0.6990408014634699,0.0171561157188635,0.0152,1.0,0.0107781878904982,0.0,0.29999999999997,0.773901963188094,0.6212243559271554,4.083517023890791,0.0136108887109687,0.4754504964477672,0.0227111111440211,0.1881545384551183,5.743825469438273,0.0416333066453162,0.2467948717948718,0.5016361844247329,0.8710583234339734,1.2994415316449164,0.2105456836614257,3.39934634239519,0.2273064955953337,23.0,17.0,15.0,0.7297248140795142,0.0534205496311187,0.5964969453415329,0.303349830720137,0.0774279178935755,0.019112610001555,0.0036027166286026,0.9575648808572502,0.0292427818835475,0.0095852177906147,0.0033636868861796,0.000243410965034,-2.701003450672684,13.596197483463714,0.8218237473176421,0.3162017330325822,0.8442065258895839,1.366212562587028,-1.7891693341449175,2.242019119520224,19.167365255042363,13.688863573881257,-5.478501681161108,0.0,medium,False,False,ambiguous_boundary,0.0495742667928098,0.0283822138126773,bad_outlier,0.0495742667928098,0.0283822138126773,0.0279848628192998,outlier_low_confidence,0.0069962157048249,0,good,0.8864357,0.0020013556,0.11156292,False
25275,test,2,bad,111001,111,0.1616335962975209,0.161532945854737,0.8758144932985306,0.1167731346025946,0.152,0.2409927942353883,0.0,0.4520871047921431,1.514835656909756,0.0057422488462179,0.0309039276093244,0.5381841612674532,0.7411330771689876,0.0033835372686924,0.0287764258420069,0.4502040897195743,18.0,56.0,3.8,0.629713538299264,2.681758882532111,0.1191793981466337,0.1158275306256748,0.0,0.0,0.5,0.6729862677006976,0.0037751885284534,0.0152,0.95,0.0014293974888171,0.0,0.1818181818181652,0.7854774940565756,0.199535545022272,4.518680106821407,0.0096076861489191,0.3296564620651618,0.0260928993658505,0.1089362346310657,9.43525752292377,0.0416333066453162,0.4559294871794871,0.5961879830351525,0.8342504367725384,1.3037534794914256,0.2264544390901279,2.943920288775949,0.2535548202751237,18.0,13.0,11.0,0.6029104611668042,0.0345350354909896,0.7411330771689876,0.2260453362673546,0.0263613472662872,0.0056647037070733,0.0007856348443989,0.9704973013536128,0.0246023509762989,0.0036489340391848,0.0011392806355102,0.0001121074417825,-3.736546141556879,15.847576104474006,-0.5673272689250999,0.352711915077978,1.4502554891210893,2.454578910222603,-4.208115447360585,0.8510933172395735,21.74980098747956,16.66719159160128,-5.082609395878276,0.0,medium,False,False,ambiguous_boundary,0.0543046357615894,0.0172185430463576,bad_outlier,0.0543046357615894,0.0172185430463576,0.0278807947019867,outlier_low_confidence,0.0069701986754966,0,good,0.73571867,0.02457498,0.23970634,False
25538,test,2,bad,111001,111,0.1798199241440496,0.1779834236702381,0.6924270924925804,0.1513322806212585,0.1288,0.255404323458767,0.0,0.2539605200550148,1.0347019532294148,0.0072668194770812,0.121628430485725,1.673748240127643,0.3540351269595439,0.0567949940663488,0.1729535897107422,0.6640066302503154,20.0,65.0,4.5,1.4884422908040629,2.593357337652056,0.0665073944973769,0.6145478292646022,0.0,0.0,0.6428571428571429,0.6137117666376382,0.0468057158676078,0.0152,1.0,0.0437028286732444,0.0,0.3999999999999733,0.592678248233925,-0.2516535388475758,2.190737355597681,0.0112089671737389,0.6881406220233405,0.0316781055417111,0.3115372543028886,4.541374730014827,0.0488390712570056,0.4727564102564102,0.5235421323678262,0.8862394188267261,1.5342988562223352,0.2074163055832318,1.632993161855452,0.3797958971132712,20.0,18.0,16.0,0.700869732607132,0.1273587435483932,0.3540351269595439,0.407810765536503,0.148203393161691,0.0655034074409852,0.0244385848245707,0.917444225246122,0.054167273750236,0.0184768804271302,0.0077894678346683,0.0021221314152162,-1.6395493314811618,9.309455406996124,-0.1291993231775486,-0.3559721401464674,0.1551180466802761,-0.2414932051691013,-2.349359920553993,-0.3410896570215963,15.352720418633712,9.37031219762184,-5.982408221011873,0.0,medium,False,False,ambiguous_boundary,0.040491958372753,0.0473036896877956,bad_outlier,0.040491958372753,0.0473036896877956,0.0276821192052979,outlier_low_confidence,0.0069205298013244,0,good,0.76372755,0.0023744323,0.23389806,False
25060,test,2,bad,111001,111,0.1942070383716822,0.1841135253692495,0.6478686977922916,0.1581925678305328,0.0704,0.2970376301040832,0.0,0.3898308899033721,1.8785889880281408,0.0055299997329711,0.0475356876850127,0.8595950094191342,0.7942084269143482,0.0044885302922911,0.030285238926405,0.3820196917868949,23.0,49.0,2.6,0.8434444137509965,2.1125898160446,0.1150925214447706,0.1951642515320358,0.0,1.0,0.8571428571428571,0.7665659249588063,0.0070955321087751,0.0152,1.0,0.0038172620961342,0.0,0.1874999999999883,0.7978991522050766,-0.4832837697434511,1.8666780994569927,0.0096076861489191,0.2803215046328768,0.0338977965416229,0.1273358363068203,9.850910949407568,0.0168134507606084,0.2299679487179487,0.5999591364122526,0.9202344954803772,1.2819955354613373,0.2316903542736798,4.988876515698588,0.1669762262385455,23.0,15.0,11.0,0.7920986369991571,0.0582024294883012,0.7942084269143482,0.1701107274035185,0.0288561398134999,0.005024737434718,0.0017872411223747,0.9805178305205972,0.0128062647988324,0.0053492219988441,0.0010666657290061,0.0002599992971526,-3.3614511630775814,16.647516766568994,1.5906077768608078,-0.4107339010891013,4.0512229388594925,1.5202693568874346,-2.993016706793692,0.3576885652661228,22.292556960698946,17.226143773442384,-5.066413187256558,0.0,medium,False,False,ambiguous_boundary,0.0544938505203405,0.0157048249763481,bad_outlier,0.0544938505203405,0.0157048249763481,0.0276631977294228,outlier_low_confidence,0.0069157994323557,0,good,0.935281,0.0044015655,0.060317423,False
26984,test,2,bad,111001,111,0.1641971284020973,0.1629224717994708,0.749459811747074,0.1304235943482374,0.0792,0.2658126501200961,0.0,0.3464284590543348,0.9170565615967096,0.0066464841365814,0.0878254622220992,1.3213802708215692,0.423718206940932,0.0181768831978416,0.0970874389221884,0.5851184934183067,21.0,52.0,3.1,1.3864321840379408,2.741904573219938,0.0600884821696499,0.673654759673129,0.0,0.0,0.7142857142857143,0.766258489892378,0.0328305243872048,0.0152,0.775,0.0210831245283602,0.0,0.3999999999999733,0.7388978343270788,0.4470082251367721,3.1576608378512447,0.0112089671737389,0.6073823386620114,0.0265437385588,0.2287145000858221,5.027456538078936,0.0448358686949559,0.2027243589743589,0.5880521709829988,0.8731571694268943,1.3344499661992373,0.2347023942875051,1.247219128924647,0.4449944320643648,21.0,18.0,19.0,0.8371413183314551,0.077897173166275,0.423718206940932,0.4573527634939898,0.0917497672718045,0.0204002135393212,0.0067613080629633,0.9151304099808067,0.0621846106529538,0.0178821916498673,0.0039447138333894,0.0008580504072465,-2.5098571214583454,11.030175111015945,-0.9398447905649152,-0.4915996694828863,-1.072311749860439,-0.6471199440601629,-1.6192963756596508,-1.411526772999251,17.102832759957426,11.241607610377136,-5.861225149580289,0.0,medium,False,False,ambiguous_boundary,0.0433301797540208,0.0403027436140018,bad_outlier,0.0433301797540208,0.0403027436140018,0.0275591296121097,outlier_low_confidence,0.0068897824030274,2,bad,0.123680174,0.010260321,0.8660595,True
26995,test,2,bad,111001,111,0.17004392638871,0.1666488055909367,0.7359985585510731,0.1252650654993485,0.0704,0.4267413931144916,0.1,0.423193595096674,1.276406346344401,0.0037421472370624,0.0802393987774848,2.1442016915481554,0.5473740919242424,0.0113050634708592,0.0978667819493009,0.5538764582052476,20.0,50.0,3.0,0.9220341387899452,2.7542163119236176,0.1065223413342014,0.3279561737259127,0.0,0.0,0.6428571428571429,0.6009362931432755,0.0225591285026917,0.0152,0.7681345076060849,0.0213094637670081,0.0,0.235294117647045,0.7053542419414067,1.0835991663148663,3.959259855213012,0.0288230584467574,0.5405376666330157,0.0277718310719098,0.2056949462449349,5.395947955028428,0.0384307445956765,0.2628205128205128,0.5559326351245728,0.8584096925026277,1.353717142612986,0.1917140862186641,2.3570226039551585,0.297883010624303,20.0,15.0,15.0,0.631653560569018,0.0674825146794319,0.5473740919242424,0.3389489360638311,0.0836863034982162,0.025200036274579,0.0047820272837999,0.9193602394147756,0.0558667568398081,0.0206604411977366,0.0034284979616917,0.0006840406659503,-3.976918954491997,13.73982046307475,-1.5361631508004396,1.762136002133614,2.5851426961996773,3.288598441985213,0.1003359710495846,-3.830628819937621,20.604415455898057,15.258059286967525,-5.346356168930532,0.0,good,False,False,ambiguous_boundary,0.0520340586565752,0.0204351939451277,bad_outlier,0.0520340586565752,0.0204351939451277,0.0275023651844843,outlier_low_confidence,0.006875591296121,0,good,0.531556,0.16167049,0.30677348,False
25150,test,2,bad,111001,111,0.1715285436563864,0.1712810720172659,0.892440358698368,0.1182533266332582,0.1744,0.2538030424339471,0.0,0.6759372622779306,2.4795615507264728,0.0066359555348753,0.1012688517570495,1.5260605442392656,0.6039603637910287,0.0321451910726703,0.1139210875102938,0.5414567732623817,21.0,56.0,3.5,0.9569163271740536,3.332699755788025,0.0550090168223243,0.4258641919979362,0.0,0.0,0.7142857142857143,0.7041326004686658,0.0242250996995609,0.0152,0.875,0.0230619105995514,0.0,0.3636363636363305,0.6708788075249273,-0.2979676880329836,6.619048506875753,0.0136108887109687,0.552362641567079,0.0293372122057625,0.3130362331612436,4.2894377460438005,0.0624499599679743,0.4318910256410256,0.4217560903814141,0.775691701484959,1.4679547329691691,0.322223785646093,2.6246692913372702,0.275887238151612,21.0,20.0,15.0,0.731397180620675,0.0897406067699194,0.6039603637910287,0.2425387400199981,0.1033680556130355,0.0382673461738498,0.0118332629516522,0.895525009040813,0.0633919214483121,0.0310520841911279,0.007401758749471,0.002629203007139,-2.69941779409681,12.920796165983864,0.1285169605410754,-0.8001321483884059,0.7608883204743149,0.7151018106847769,-1.669434333494985,0.8326426631284565,18.512876269833168,12.806763940956015,-5.706112328877151,0.0,medium,False,False,ambiguous_boundary,0.0461684011352885,0.0334910122989593,bad_outlier,0.0461684011352885,0.0334910122989593,0.0274739829706717,outlier_low_confidence,0.0068684957426679,0,good,0.9807966,0.0008695904,0.018333921,False
