n,acc,macro_f1,good_recall,medium_recall,bad_recall,good_precision,medium_precision,bad_precision,support_good,support_medium,support_bad,rule,pc2_min,qv_max,qrs_max,qrs_band_max,base_min,nonq_min,entropy_min,lf_min,den3_max,diff_ratio_max,hf_max
8477,0.8508906452754512,0.7341302897516822,0.9065934065934066,0.8258020786262992,0.6277372262773723,0.9205020920502092,0.889294403892944,0.329923273657289,3640,4426,411,badstress_00000,8.0,0.035,3.2,0.14,0.9,0.015,0.7,0.55,0.12,6.0,1.2
8477,0.8793205143329008,0.7738339964767514,0.9068681318681319,0.8854496159060099,0.5693430656934306,0.9205242610150586,0.8902771467514766,0.4785276073619632,3640,4426,411,badstress_00001,8.0,0.035,3.2,0.14,0.9,0.03,0.7,0.55,0.12,6.0,1.2
8477,0.8919429043293619,0.794769752634673,0.9068681318681319,0.9141436963398102,0.5206812652068127,0.9205242610150586,0.8892307692307693,0.6275659824046921,3640,4426,411,badstress_00002,8.0,0.035,3.2,0.14,0.9,0.045,0.7,0.55,0.12,6.0,1.2
8477,0.8532499705084345,0.7365583209214842,0.9068681318681319,0.8307727067329417,0.6204379562043796,0.9205242610150586,0.8892382103990326,0.3373015873015873,3640,4426,411,badstress_00003,8.0,0.035,3.2,0.14,1.1,0.015,0.7,0.55,0.12,6.0,1.2
8477,0.8805001769493924,0.7751533387287554,0.9068681318681319,0.8883868052417533,0.5620437956204379,0.9205242610150586,0.8899954730647351,0.4883720930232558,3640,4426,411,badstress_00004,8.0,0.035,3.2,0.14,1.1,0.03,0.7,0.55,0.12,6.0,1.2
8477,0.8922968031143093,0.7948995156516254,0.9068681318681319,0.9152733845458654,0.5158150851581509,0.9205242610150586,0.8889620364274742,0.6347305389221557,3640,4426,411,badstress_00005,8.0,0.035,3.2,0.14,1.1,0.045,0.7,0.55,0.12,6.0,1.2
8477,0.858440486020998,0.740790645730996,0.9068681318681319,0.8431992769995481,0.5936739659367397,0.9205242610150586,0.8881485007139457,0.35413642960812775,3640,4426,411,badstress_00006,8.0,0.035,3.2,0.14,1.3,0.015,0.7,0.55,0.12,6.0,1.2
8477,0.8819157720891825,0.7751886345748219,0.9068681318681319,0.8929055580659738,0.5425790754257908,0.9205242610150586,0.8888888888888888,0.501123595505618,3640,4426,411,badstress_00007,8.0,0.035,3.2,0.14,1.3,0.03,0.7,0.55,0.12,6.0,1.2
8477,0.8927686681609059,0.7953270223661663,0.9068681318681319,0.9166290103931315,0.5109489051094891,0.9205242610150586,0.8887185104052574,0.6441717791411042,3640,4426,411,badstress_00008,8.0,0.035,3.2,0.14,1.3,0.045,0.7,0.55,0.12,6.0,1.2
8477,0.8440486020997995,0.7253617946731611,0.9065934065934066,0.8122458201536376,0.6326034063260341,0.9205020920502092,0.8883123301210774,0.3076923076923077,3640,4426,411,badstress_00009,8.0,0.035,3.2,0.2,0.9,0.015,0.7,0.55,0.12,6.0,1.2
8477,0.8746018638669341,0.765462172707979,0.9068681318681319,0.8759602349751469,0.5742092457420924,0.9205242610150586,0.8896282698485544,0.4427767354596623,3640,4426,411,badstress_00010,8.0,0.035,3.2,0.2,0.9,0.03,0.7,0.55,0.12,6.0,1.2
8477,0.8894656128347292,0.7895079015098849,0.9068681318681319,0.9089471305919566,0.5255474452554745,0.9205242610150586,0.889060773480663,0.5901639344262295,3640,4426,411,badstress_00011,8.0,0.035,3.2,0.2,0.9,0.045,0.7,0.55,0.12,6.0,1.2
8477,0.847233691164327,0.7287092535541809,0.9068681318681319,0.8187980117487573,0.6253041362530414,0.9205242610150586,0.8884530522186811,0.31650246305418717,3640,4426,411,badstress_00012,8.0,0.035,3.2,0.2,1.1,0.015,0.7,0.55,0.12,6.0,1.2
8477,0.8766072903149699,0.7681982661852343,0.9068681318681319,0.8804789877993674,0.5669099756690997,0.9205242610150586,0.8895229399680439,0.4568627450980392,3640,4426,411,badstress_00013,8.0,0.035,3.2,0.2,1.1,0.03,0.7,0.55,0.12,6.0,1.2
8477,0.8901734104046243,0.7904465995188975,0.9068681318681319,0.9107546317216448,0.5206812652068127,0.9205242610150586,0.888864388092613,0.601123595505618,3640,4426,411,badstress_00014,8.0,0.035,3.2,0.2,1.1,0.045,0.7,0.55,0.12,6.0,1.2
8477,0.8534859030317329,0.7337329889236309,0.9068681318681319,0.833483958427474,0.5961070559610706,0.9205242610150586,0.8874188116430118,0.3337874659400545,3640,4426,411,badstress_00015,8.0,0.035,3.2,0.2,1.3,0.015,0.7,0.55,0.12,6.0,1.2
8477,0.8784947505013566,0.7686494674343853,0.9068681318681319,0.886127428829643,0.5450121654501217,0.9205242610150586,0.888335220838052,0.47058823529411764,3640,4426,411,badstress_00016,8.0,0.035,3.2,0.2,1.3,0.03,0.7,0.55,0.12,6.0,1.2
8477,0.8907632417128701,0.7907342978667583,0.9068681318681319,0.912562132851333,0.51338199513382,0.9205242610150586,0.8884733831940167,0.6115942028985507,3640,4426,411,badstress_00017,8.0,0.035,3.2,0.2,1.3,0.045,0.7,0.55,0.12,6.0,1.2
8477,0.8414533443435177,0.7219869911242841,0.9065934065934066,0.807275192046995,0.6326034063260341,0.9205020920502092,0.8877018633540372,0.29988465974625145,3640,4426,411,badstress_00018,8.0,0.035,3.2,0.28,0.9,0.015,0.7,0.55,0.12,6.0,1.2
8477,0.8721245723723016,0.760942748752819,0.9068681318681319,0.8712155445097153,0.5742092457420924,0.9205242610150586,0.8890938436707402,0.4259927797833935,3640,4426,411,badstress_00019,8.0,0.035,3.2,0.28,0.9,0.03,0.7,0.55,0.12,6.0,1.2
8477,0.8876961189099918,0.7853817912285779,0.9068681318681319,0.9055580659737912,0.5255474452554745,0.9205242610150586,0.8886917960088692,0.5669291338582677,3640,4426,411,badstress_00020,8.0,0.035,3.2,0.28,0.9,0.045,0.7,0.55,0.12,6.0,1.2
8477,0.8448743659313437,0.7255533247192796,0.9068681318681319,0.8142792589245368,0.6253041362530414,0.9205242610150586,0.8879034244887903,0.3088942307692308,3640,4426,411,badstress_00021,8.0,0.035,3.2,0.28,1.1,0.015,0.7,0.55,0.12,6.0,1.2
8477,0.8743659313436357,0.7639856626915752,0.9068681318681319,0.8761861726163579,0.5669099756690997,0.9205242610150586,0.8890417239798257,0.44045368620037806,3640,4426,411,badstress_00022,8.0,0.035,3.2,0.28,1.1,0.03,0.7,0.55,0.12,6.0,1.2
8477,0.8885218827415359,0.7865383855987734,0.9068681318681319,0.9075915047446904,0.5206812652068127,0.9205242610150586,0.8885202388852024,0.5783783783783784,3640,4426,411,badstress_00023,8.0,0.035,3.2,0.28,1.1,0.045,0.7,0.55,0.12,6.0,1.2
8477,0.8515984428453462,0.7310571633132578,0.9068681318681319,0.8298689561680976,0.5961070559610706,0.9205242610150586,0.8869838203332528,0.32666666666666666,3640,4426,411,badstress_00024,8.0,0.035,3.2,0.28,1.3,0.015,0.7,0.55,0.12,6.0,1.2
8477,0.876725256576619,0.7652193332262941,0.9068681318681319,0.8827383642114777,0.5450121654501217,0.9205242610150586,0.8879545454545454,0.45621181262729127,3640,4426,411,badstress_00025,8.0,0.035,3.2,0.28,1.3,0.03,0.7,0.55,0.12,6.0,1.2
8477,0.8893476465730801,0.7873360884855835,0.9068681318681319,0.9098508811568007,0.51338199513382,0.9205242610150586,0.888178209086899,0.5910364145658263,3640,4426,411,badstress_00026,8.0,0.035,3.2,0.28,1.3,0.045,0.7,0.55,0.12,6.0,1.2
8477,0.8497109826589595,0.735338543610648,0.9065934065934066,0.8212833258020786,0.6520681265206812,0.9212730318257957,0.8907130605243813,0.32923832923832924,3640,4426,411,badstress_00027,8.0,0.035,3.8,0.14,0.9,0.015,0.7,0.55,0.12,6.0,1.2
8477,0.8782588179780583,0.7731160462209511,0.9068681318681319,0.8825124265702666,0.5790754257907542,0.9205242610150586,0.8907639680729761,0.47035573122529645,3640,4426,411,badstress_00028,8.0,0.035,3.8,0.14,0.9,0.03,0.7,0.55,0.12,6.0,1.2
8477,0.8909991742361685,0.7928208938194192,0.9068681318681319,0.912110257568911,0.5231143552311436,0.9205242610150586,0.8892070484581498,0.6125356125356125,3640,4426,411,badstress_00029,8.0,0.035,3.8,0.14,0.9,0.045,0.7,0.55,0.12,6.0,1.2
8477,0.8523062404152413,0.7381031253703617,0.9068681318681319,0.8267058291911432,0.6447688564476886,0.921295004186436,0.8907010710808179,0.3371501272264631,3640,4426,411,badstress_00030,8.0,0.035,3.8,0.14,1.1,0.015,0.7,0.55,0.12,6.0,1.2
8477,0.8795564468561992,0.7746502545109525,0.9068681318681319,0.8856755535472209,0.5717761557177615,0.9205242610150586,0.8905043162199,0.48057259713701433,3640,4426,411,badstress_00031,8.0,0.035,3.8,0.14,1.1,0.03,0.7,0.55,0.12,6.0,1.2
8477,0.8914710392827652,0.7932264593631443,0.9068681318681319,0.9134658834161772,0.5182481751824818,0.9205242610150586,0.88896218117854,0.6209912536443148,3640,4426,411,badstress_00032,8.0,0.035,3.8,0.14,1.1,0.045,0.7,0.55,0.12,6.0,1.2
8477,0.857732688451103,0.7424397671964588,0.9068681318681319,0.8398102123813828,0.6155717761557178,0.921295004186436,0.8894472361809045,0.35384615384615387,3640,4426,411,badstress_00033,8.0,0.035,3.8,0.14,1.3,0.015,0.7,0.55,0.12,6.0,1.2
8477,0.8813259407809366,0.7754176488300244,0.9068681318681319,0.8908721192950746,0.5523114355231143,0.9205242610150586,0.8894653733363411,0.49563318777292575,3640,4426,411,badstress_00034,8.0,0.035,3.8,0.14,1.3,0.03,0.7,0.55,0.12,6.0,1.2
8477,0.892060870591011,0.793930446808937,0.9068681318681319,0.9150474469046543,0.51338199513382,0.9205242610150586,0.8887425938117183,0.6317365269461078,3640,4426,411,badstress_00035,8.0,0.035,3.8,0.14,1.3,0.045,0.7,0.55,0.12,6.0,1.2
8477,0.8398018166804294,0.723246490209311,0.9065934065934066,0.8014008133755084,0.6618004866180048,0.9212730318257957,0.8894182547642929,0.29988974641675853,3640,4426,411,badstress_00036,8.0,0.035,3.8,0.2,0.9,0.015,0.7,0.55,0.12,6.0,1.2
8477,0.8709449097558098,0.7608793502217539,0.9068681318681319,0.8676005422503389,0.5888077858880778,0.9205242610150586,0.8899188876013905,0.4201388888888889,3640,4426,411,badstress_00037,8.0,0.035,3.8,0.2,0.9,0.03,0.7,0.55,0.12,6.0,1.2
8477,0.8867523888167984,0.7843523115324457,0.9068681318681319,0.90307275192047,0.5328467153284672,0.9205242610150586,0.8890124555160143,0.5544303797468354,3640,4426,411,badstress_00038,8.0,0.035,3.8,0.2,0.9,0.045,0.7,0.55,0.12,6.0,1.2
8477,0.8434587707915536,0.7271154362679805,0.9068681318681319,0.8088567555354722,0.6545012165450121,0.921295004186436,0.889662027833002,0.30919540229885056,3640,4426,411,badstress_00039,8.0,0.035,3.8,0.2,1.1,0.015,0.7,0.55,0.12,6.0,1.2
8477,0.8733042349887932,0.7641009937037634,0.9068681318681319,0.8727971079981925,0.5815085158150851,0.9205242610150586,0.8898871227827689,0.43454545454545457,3640,4426,411,badstress_00040,8.0,0.035,3.8,0.2,1.1,0.03,0.7,0.55,0.12,6.0,1.2
8477,0.8876961189099918,0.7857557588977612,0.9068681318681319,0.9053321283325803,0.5279805352798054,0.9205242610150586,0.8888642413487134,0.566579634464752,3640,4426,411,badstress_00041,8.0,0.035,3.8,0.2,1.1,0.045,0.7,0.55,0.12,6.0,1.2
8477,0.850064881443907,0.7319159156897137,0.9068681318681319,0.824672390420244,0.6204379562043796,0.921295004186436,0.888293988805062,0.3248407643312102,3640,4426,411,badstress_00042,8.0,0.035,3.8,0.2,1.3,0.015,0.7,0.55,0.12,6.0,1.2
8477,0.8756635602217766,0.7650000731905774,0.9068681318681319,0.8795752372345232,0.5571776155717761,0.9205242610150586,0.8886099064140607,0.44901960784313727,3640,4426,411,badstress_00043,8.0,0.035,3.8,0.2,1.3,0.03,0.7,0.55,0.12,6.0,1.2
8477,0.8885218827415359,0.7861591800326115,0.9068681318681319,0.9078174423859015,0.5182481751824818,0.9205242610150586,0.8883484413000221,0.5788043478260869,3640,4426,411,badstress_00044,8.0,0.035,3.8,0.2,1.3,0.045,0.7,0.55,0.12,6.0,1.2
8477,0.8349651999528135,0.7172074424717123,0.9065934065934066,0.7921373700858563,0.6618004866180048,0.9212730318257957,0.8882695718267039,0.2869198312236287,3640,4426,411,badstress_00045,8.0,0.035,3.8,0.28,0.9,0.015,0.7,0.55,0.12,6.0,1.2
8477,0.8664621918131414,0.7531873324430048,0.9068681318681319,0.8590149118843199,0.5888077858880778,0.9205242610150586,0.8889408463876549,0.3941368078175896,3640,4426,411,badstress_00046,8.0,0.035,3.8,0.28,0.9,0.03,0.7,0.55,0.12,6.0,1.2
8477,0.8836852660139201,0.7776160897592895,0.9068681318681319,0.8971983732489833,0.5328467153284672,0.9205242610150586,0.8883668903803132,0.5201900237529691,3640,4426,411,badstress_00047,8.0,0.035,3.8,0.28,0.9,0.045,0.7,0.55,0.12,6.0,1.2
8477,0.8390940191105344,0.7214955986281968,0.9068681318681319,0.8004970628106642,0.6545012165450121,0.921295004186436,0.8886380737396539,0.2965821389195149,3640,4426,411,badstress_00048,8.0,0.035,3.8,0.28,1.1,0.015,0.7,0.55,0.12,6.0,1.2
8477,0.8692933820927214,0.7569836262944523,0.9068681318681319,0.8651152281970176,0.5815085158150851,0.9205242610150586,0.8890178778732296,0.4092465753424658,3640,4426,411,badstress_00049,8.0,0.035,3.8,0.28,1.1,0.03,0.7,0.55,0.12,6.0,1.2
8477,0.8849828948920608,0.7796775527922485,0.9068681318681319,0.9001355625847266,0.5279805352798054,0.9205242610150586,0.8882943143812709,0.5344827586206896,3640,4426,411,badstress_00050,8.0,0.035,3.8,0.28,1.1,0.045,0.7,0.55,0.12,6.0,1.2
8477,0.8464079273327828,0.7269338152623778,0.9068681318681319,0.8176683235427022,0.6204379562043796,0.921295004186436,0.8874448258950466,0.3125,3640,4426,411,badstress_00051,8.0,0.035,3.8,0.28,1.3,0.015,0.7,0.55,0.12,6.0,1.2
8477,0.8723605048955999,0.758922918681225,0.9068681318681319,0.8732489832806145,0.5571776155717761,0.9205242610150586,0.8878934068458534,0.4256505576208178,3640,4426,411,badstress_00052,8.0,0.035,3.8,0.28,1.3,0.03,0.7,0.55,0.12,6.0,1.2
8477,0.8862805237702017,0.7810374851510059,0.9068681318681319,0.903524627202892,0.5182481751824818,0.9205242610150586,0.8878774422735346,0.5503875968992248,3640,4426,411,badstress_00053,8.0,0.035,3.8,0.28,1.3,0.045,0.7,0.55,0.12,6.0,1.2
8477,0.8492391176123628,0.7352710996475101,0.9065934065934066,0.8199276999548125,0.656934306569343,0.9212730318257957,0.8909894426712497,0.3284671532846715,3640,4426,411,badstress_00054,8.0,0.035,4.4,0.14,0.9,0.015,0.7,0.55,0.12,6.0,1.2
8477,0.8779049191931108,0.7731045953396762,0.9068681318681319,0.8813827383642114,0.583941605839416,0.9205242610150586,0.8910461397898584,0.4678362573099415,3640,4426,411,badstress_00055,8.0,0.035,4.4,0.14,0.9,0.03,0.7,0.55,0.12,6.0,1.2
8477,0.8908812079745193,0.792906410956124,0.9068681318681319,0.9116583822864889,0.5255474452554745,0.9205242610150586,0.8893541988097862,0.6101694915254238,3640,4426,411,badstress_00056,8.0,0.035,4.4,0.14,0.9,0.045,0.7,0.55,0.12,6.0,1.2
8477,0.8518343753686446,0.738028817008162,0.9068681318681319,0.8253502033438771,0.6496350364963503,0.921295004186436,0.8909756097560976,0.336272040302267,3640,4426,411,badstress_00057,8.0,0.035,4.4,0.14,1.1,0.015,0.7,0.55,0.12,6.0,1.2
8477,0.8792025480712516,0.7746338719095415,0.9068681318681319,0.8845458653411659,0.5766423357664233,0.9205242610150586,0.8907849829351536,0.4778225806451613,3640,4426,411,badstress_00058,8.0,0.035,4.4,0.14,1.1,0.03,0.7,0.55,0.12,6.0,1.2
8477,0.891353073021116,0.7933125919207983,0.9068681318681319,0.9130140081337551,0.5206812652068127,0.9205242610150586,0.8891089108910891,0.6184971098265896,3640,4426,411,badstress_00059,8.0,0.035,4.4,0.14,1.1,0.045,0.7,0.55,0.12,6.0,1.2
8477,0.8573787896661554,0.742224350319962,0.9068681318681319,0.8389064618165386,0.6180048661800487,0.921295004186436,0.8895543842836607,0.3527777777777778,3640,4426,411,badstress_00060,8.0,0.035,4.4,0.14,1.3,0.015,0.7,0.55,0.12,6.0,1.2
8477,0.8810900082576383,0.7752915519859259,0.9068681318681319,0.8901943063714415,0.5547445255474452,0.9205242610150586,0.8895913298713027,0.4935064935064935,3640,4426,411,badstress_00061,8.0,0.035,4.4,0.14,1.3,0.03,0.7,0.55,0.12,6.0,1.2
8477,0.8919429043293619,0.7940163700164314,0.9068681318681319,0.9145955716222323,0.5158150851581509,0.9205242610150586,0.8888888888888888,0.629080118694362,3640,4426,411,badstress_00062,8.0,0.035,4.4,0.14,1.3,0.045,0.7,0.55,0.12,6.0,1.2
8477,0.8376784239707443,0.72099427951169,0.9065934065934066,0.7968820605512879,0.6666666666666666,0.9212730318257957,0.8897578203834511,0.29430719656283566,3640,4426,411,badstress_00063,8.0,0.035,4.4,0.2,0.9,0.015,0.7,0.55,0.12,6.0,1.2
8477,0.8691754158310723,0.7584561443421939,0.9068681318681319,0.8637596023497515,0.5936739659367397,0.9205242610150586,0.8898975791433892,0.41008403361344536,3640,4426,411,badstress_00064,8.0,0.035,4.4,0.2,0.9,0.03,0.7,0.55,0.12,6.0,1.2
8477,0.8855727262003067,0.7820891695968212,0.9068681318681319,0.9005874378671487,0.5352798053527981,0.9205242610150586,0.8889384478144514,0.5405405405405406,3640,4426,411,badstress_00065,8.0,0.035,4.4,0.2,0.9,0.045,0.7,0.55,0.12,6.0,1.2
8477,0.8414533443435177,0.7249364782388646,0.9068681318681319,0.8045639403524627,0.6593673965936739,0.921295004186436,0.8900274931267184,0.303471444568869,3640,4426,411,badstress_00066,8.0,0.035,4.4,0.2,1.1,0.015,0.7,0.55,0.12,6.0,1.2
8477,0.8715347410640557,0.7615895330046804,0.9068681318681319,0.868956168097605,0.5863746958637469,0.9205242610150586,0.8898658028690422,0.4235500878734622,3640,4426,411,badstress_00067,8.0,0.035,4.4,0.2,1.1,0.03,0.7,0.55,0.12,6.0,1.2
8477,0.8865164562935001,0.783450460011248,0.9068681318681319,0.902846814279259,0.5304136253041363,0.9205242610150586,0.8887900355871886,0.5518987341772152,3640,4426,411,badstress_00068,8.0,0.035,4.4,0.2,1.1,0.045,0.7,0.55,0.12,6.0,1.2
8477,0.8485313200424679,0.7299467187462908,0.9068681318681319,0.8215092634432897,0.6228710462287105,0.921295004186436,0.8885630498533724,0.3192019950124688,3640,4426,411,badstress_00069,8.0,0.035,4.4,0.2,1.3,0.015,0.7,0.55,0.12,6.0,1.2
8477,0.8742479650819865,0.7627146554521071,0.9068681318681319,0.87663804789878,0.559610705596107,0.9205242610150586,0.8884817952828028,0.4389312977099237,3640,4426,411,badstress_00070,8.0,0.035,4.4,0.2,1.3,0.03,0.7,0.55,0.12,6.0,1.2
8477,0.8875781526483426,0.7843574399382991,0.9068681318681319,0.9057840036150022,0.5206812652068127,0.9205242610150586,0.8883226235320186,0.5661375661375662,3640,4426,411,badstress_00071,8.0,0.035,4.4,0.2,1.3,0.045,0.7,0.55,0.12,6.0,1.2
8477,0.8314262121033384,0.7133663737393792,0.9065934065934066,0.7849073655671035,0.6666666666666666,0.9212730318257957,0.8882638711327027,0.2784552845528455,3640,4426,411,badstress_00072,8.0,0.035,4.4,0.28,0.9,0.015,0.7,0.55,0.12,6.0,1.2
8477,0.8633950690102631,0.7488305032716065,0.9068681318681319,0.8526886579304112,0.5936739659367397,0.9205242610150586,0.8886272663056275,0.37888198757763975,3640,4426,411,badstress_00073,8.0,0.035,4.4,0.28,0.9,0.03,0.7,0.55,0.12,6.0,1.2
8477,0.8813259407809366,0.7730362688623632,0.9068681318681319,0.8924536827835517,0.5352798053527981,0.9205242610150586,0.8880395683453237,0.4966139954853273,3640,4426,411,badstress_00074,8.0,0.035,4.4,0.28,0.9,0.045,0.7,0.55,0.12,6.0,1.2
8477,0.8359089300460069,0.7179574786356211,0.9068681318681319,0.7939448712155445,0.6593673965936739,0.921295004186436,0.8887202832574608,0.28829787234042553,3640,4426,411,badstress_00075,8.0,0.035,4.4,0.28,1.1,0.015,0.7,0.55,0.12,6.0,1.2
8477,0.8664621918131414,0.7528530445178742,0.9068681318681319,0.8592408495255309,0.5863746958637469,0.9205242610150586,0.8887590558541716,0.3937908496732026,3640,4426,411,badstress_00076,8.0,0.035,4.4,0.28,1.1,0.03,0.7,0.55,0.12,6.0,1.2
8477,0.8828595021823759,0.7754887818732016,0.9068681318681319,0.8958427474017171,0.5304136253041363,0.9205242610150586,0.8880179171332587,0.5117370892018779,3640,4426,411,badstress_00077,8.0,0.035,4.4,0.28,1.1,0.045,0.7,0.55,0.12,6.0,1.2
8477,0.8439306358381503,0.7238064799885654,0.9068681318681319,0.8126976954360596,0.6228710462287105,0.921295004186436,0.8874907475943745,0.30439952437574314,3640,4426,411,badstress_00078,8.0,0.035,4.4,0.28,1.3,0.015,0.7,0.55,0.12,6.0,1.2
8477,0.8701191459242656,0.755308774883552,0.9068681318681319,0.8687302304563941,0.559610705596107,0.9205242610150586,0.8875807940904894,0.41144901610017887,3640,4426,411,badstress_00079,8.0,0.035,4.4,0.28,1.3,0.03,0.7,0.55,0.12,6.0,1.2
8477,0.8846289961071133,0.7777728332322619,0.9068681318681319,0.9001355625847266,0.5206812652068127,0.9205242610150586,0.8877005347593583,0.5310173697270472,3640,4426,411,badstress_00080,8.0,0.035,4.4,0.28,1.3,0.045,0.7,0.55,0.12,6.0,1.2
8477,0.8501828477055562,0.7342763646148769,0.9065934065934066,0.8235427022141889,0.6374695863746959,0.9207589285714286,0.889892578125,0.328732747804266,3640,4426,411,badstress_00081,8.0,0.05,3.2,0.14,0.9,0.015,0.7,0.55,0.12,6.0,1.2
8477,0.8792025480712516,0.7746338719095415,0.9068681318681319,0.8845458653411659,0.5766423357664233,0.9205242610150586,0.8907849829351536,0.4778225806451613,3640,4426,411,badstress_00082,8.0,0.05,3.2,0.14,0.9,0.03,0.7,0.55,0.12,6.0,1.2
8477,0.8921788368526601,0.7964711346334657,0.9068681318681319,0.9139177586985991,0.5279805352798054,0.9205242610150586,0.8897932248130225,0.6289855072463768,3640,4426,411,badstress_00083,8.0,0.05,3.2,0.14,0.9,0.045,0.7,0.55,0.12,6.0,1.2
8477,0.852778105461838,0.7370335608419273,0.9068681318681319,0.8289652056032535,0.6301703163017032,0.9207810320781032,0.8898860053359204,0.3368010403120936,3640,4426,411,badstress_00084,8.0,0.05,3.2,0.14,1.1,0.015,0.7,0.55,0.12,6.0,1.2
8477,0.8805001769493924,0.7762010170929116,0.9068681318681319,0.8877089923181202,0.5693430656934306,0.9205242610150586,0.8905258386219401,0.48851774530271397,3640,4426,411,badstress_00085,8.0,0.05,3.2,0.14,1.1,0.03,0.7,0.55,0.12,6.0,1.2
8477,0.8925327356376076,0.7966162933588641,0.9068681318681319,0.9150474469046543,0.5231143552311436,0.9205242610150586,0.8895233911706567,0.636094674556213,3640,4426,411,badstress_00086,8.0,0.05,3.2,0.14,1.1,0.045,0.7,0.55,0.12,6.0,1.2
8477,0.857732688451103,0.7399600876231592,0.9068681318681319,0.841617713511071,0.5961070559610706,0.9207810320781032,0.8881735813066285,0.3510028653295129,3640,4426,411,badstress_00087,8.0,0.05,3.2,0.14,1.3,0.015,0.7,0.55,0.12,6.0,1.2
8477,0.881561873304235,0.7744570283460153,0.9068681318681319,0.8922277451423407,0.5425790754257908,0.9205242610150586,0.8888138645059644,0.49776785714285715,3640,4426,411,badstress_00088,8.0,0.05,3.2,0.14,1.3,0.03,0.7,0.55,0.12,6.0,1.2
8477,0.8926507018992568,0.7950289300284513,0.9068681318681319,0.9164030727519205,0.5109489051094891,0.9205242610150586,0.8886941279579317,0.6422018348623854,3640,4426,411,badstress_00089,8.0,0.05,3.2,0.14,1.3,0.045,0.7,0.55,0.12,6.0,1.2
8477,0.840863513035272,0.7243011935279479,0.9065934065934066,0.8036601897876187,0.6593673965936739,0.9207589285714286,0.8899174380785589,0.30245535714285715,3640,4426,411,badstress_00090,8.0,0.05,3.2,0.2,0.9,0.015,0.7,0.55,0.12,6.0,1.2
8477,0.8735401675120915,0.7668742493821741,0.9068681318681319,0.8716674197921374,0.5985401459854015,0.9205242610150586,0.8911988911988912,0.4377224199288256,3640,4426,411,badstress_00091,8.0,0.05,3.2,0.2,0.9,0.03,0.7,0.55,0.12,6.0,1.2
8477,0.8898195116196768,0.7939840256329967,0.9068681318681319,0.9073655671034795,0.5498783454987834,0.9205242610150586,0.8908606921029282,0.5900783289817232,3640,4426,411,badstress_00092,8.0,0.05,3.2,0.2,0.9,0.045,0.7,0.55,0.12,6.0,1.2
8477,0.8447563996696945,0.728226818510274,0.9068681318681319,0.8117939448712156,0.6496350364963503,0.9207810320781032,0.8900173396086203,0.312280701754386,3640,4426,411,badstress_00093,8.0,0.05,3.2,0.2,1.1,0.015,0.7,0.55,0.12,6.0,1.2
8477,0.8757815264834258,0.7697088045217488,0.9068681318681319,0.876863985539991,0.5888077858880778,0.9205242610150586,0.8909550045913682,0.4523364485981308,3640,4426,411,badstress_00094,8.0,0.05,3.2,0.2,1.1,0.03,0.7,0.55,0.12,6.0,1.2
8477,0.8904093429279226,0.7943232571059647,0.9068681318681319,0.9091730682331677,0.5425790754257908,0.9205242610150586,0.8904624917017039,0.5994623655913979,3640,4426,411,badstress_00095,8.0,0.05,3.2,0.2,1.1,0.045,0.7,0.55,0.12,6.0,1.2
8477,0.8514804765836971,0.7323141503380958,0.9068681318681319,0.8285133303208314,0.6082725060827251,0.9207810320781032,0.8881085008476629,0.32765399737876805,3640,4426,411,badstress_00096,8.0,0.05,3.2,0.2,1.3,0.015,0.7,0.55,0.12,6.0,1.2
8477,0.8780228854547599,0.7691663509144219,0.9068681318681319,0.8843199276999548,0.5547445255474452,0.9205242610150586,0.8889393595275948,0.4672131147540984,3640,4426,411,badstress_00097,8.0,0.05,3.2,0.2,1.3,0.03,0.7,0.55,0.12,6.0,1.2
8477,0.8908812079745193,0.7925334842830031,0.9068681318681319,0.9118843199276999,0.5231143552311436,0.9205242610150586,0.889182639347874,0.6107954545454546,3640,4426,411,badstress_00098,8.0,0.05,3.2,0.2,1.3,0.045,0.7,0.55,0.12,6.0,1.2
8477,0.837442491447446,0.7199701046969108,0.9065934065934066,0.7971079981924989,0.6593673965936739,0.9207589285714286,0.8891129032258065,0.292972972972973,3640,4426,411,badstress_00099,8.0,0.05,3.2,0.28,0.9,0.015,0.7,0.55,0.12,6.0,1.2
8477,0.8702371121859148,0.7609631414343534,0.9068681318681319,0.8653411658382286,0.5985401459854015,0.9205242610150586,0.8904905835852127,0.41694915254237286,3640,4426,411,badstress_00100,8.0,0.05,3.2,0.28,0.9,0.03,0.7,0.55,0.12,6.0,1.2
8477,0.8874601863866934,0.7884983077226005,0.9068681318681319,0.902846814279259,0.5498783454987834,0.9205242610150586,0.8903743315508021,0.5607940446650124,3640,4426,411,badstress_00101,8.0,0.05,3.2,0.28,0.9,0.045,0.7,0.55,0.12,6.0,1.2
8477,0.841689276866816,0.7242151794128681,0.9068681318681319,0.8059195661997288,0.6496350364963503,0.9207810320781032,0.8893044128646223,0.3030646992054484,3640,4426,411,badstress_00102,8.0,0.05,3.2,0.28,1.1,0.015,0.7,0.55,0.12,6.0,1.2
8477,0.8728323699421965,0.7642557553659773,0.9068681318681319,0.8712155445097153,0.5888077858880778,0.9205242610150586,0.8903255599168783,0.43214285714285716,3640,4426,411,badstress_00103,8.0,0.05,3.2,0.28,1.1,0.03,0.7,0.55,0.12,6.0,1.2
8477,0.8882859502182375,0.7893170418566392,0.9068681318681319,0.9051061906913692,0.5425790754257908,0.9205242610150586,0.8900244390135525,0.5717948717948718,3640,4426,411,badstress_00104,8.0,0.05,3.2,0.28,1.1,0.045,0.7,0.55,0.12,6.0,1.2
8477,0.8491211513507136,0.7290436021661746,0.9068681318681319,0.823994577496611,0.6082725060827251,0.9207810320781032,0.8875638841567292,0.31928480204342274,3640,4426,411,badstress_00105,8.0,0.05,3.2,0.28,1.3,0.015,0.7,0.55,0.12,6.0,1.2
8477,0.8757815264834258,0.7648665569410952,0.9068681318681319,0.8800271125169453,0.5547445255474452,0.9205242610150586,0.8884580291970803,0.44970414201183434,3640,4426,411,badstress_00106,8.0,0.05,3.2,0.28,1.3,0.03,0.7,0.55,0.12,6.0,1.2
8477,0.8891117140497817,0.7882972950146495,0.9068681318681319,0.9084952553095346,0.5231143552311436,0.9205242610150586,0.888815207780725,0.5858310626702997,3640,4426,411,badstress_00107,8.0,0.05,3.2,0.28,1.3,0.045,0.7,0.55,0.12,6.0,1.2
8477,0.8474696236876254,0.7332666319305328,0.9065934065934066,0.816086760054225,0.6618004866180048,0.9215302987992181,0.8911917098445595,0.32265717674970346,3640,4426,411,badstress_00108,8.0,0.05,3.8,0.14,0.9,0.015,0.7,0.55,0.12,6.0,1.2
8477,0.8771971216232157,0.772071669284856,0.9068681318681319,0.8798011748757343,0.5863746958637469,0.9205242610150586,0.8910755148741418,0.46257197696737046,3640,4426,411,badstress_00109,8.0,0.05,3.8,0.14,0.9,0.03,0.7,0.55,0.12,6.0,1.2
8477,0.890645275451221,0.7930742242923031,0.9068681318681319,0.9107546317216448,0.5304136253041363,0.9205242610150586,0.889649084087398,0.6055555555555555,3640,4426,411,badstress_00110,8.0,0.05,3.8,0.14,0.9,0.045,0.7,0.55,0.12,6.0,1.2
8477,0.8505367464905037,0.7366257434194058,0.9068681318681319,0.8224130140081337,0.6545012165450121,0.9215522054718035,0.89128305582762,0.3316892725030826,3640,4426,411,badstress_00111,8.0,0.05,3.8,0.14,1.1,0.015,0.7,0.55,0.12,6.0,1.2
8477,0.878730683024655,0.7740425167368139,0.9068681318681319,0.8834161771351107,0.5790754257907542,0.9205242610150586,0.8908635224424698,0.47410358565737054,3640,4426,411,badstress_00112,8.0,0.05,3.8,0.14,1.1,0.03,0.7,0.55,0.12,6.0,1.2
8477,0.8912351067594668,0.7937701394287191,0.9068681318681319,0.912336195210122,0.5255474452554745,0.9205242610150586,0.8894273127753304,0.6153846153846154,3640,4426,411,badstress_00113,8.0,0.05,3.8,0.14,1.1,0.045,0.7,0.55,0.12,6.0,1.2
8477,0.8559631945263655,0.7399400085512774,0.9068681318681319,0.8361952101220064,0.6180048661800487,0.9215522054718035,0.8894496515260755,0.3460490463215259,3640,4426,411,badstress_00114,8.0,0.05,3.8,0.14,1.3,0.015,0.7,0.55,0.12,6.0,1.2
8477,0.8803822106877434,0.7734947081894324,0.9068681318681319,0.8890646181653864,0.5523114355231143,0.9205242610150586,0.8892655367231639,0.4871244635193133,3640,4426,411,badstress_00115,8.0,0.05,3.8,0.14,1.3,0.03,0.7,0.55,0.12,6.0,1.2
8477,0.8915890055444143,0.7927590014618784,0.9068681318681319,0.9141436963398102,0.51338199513382,0.9205242610150586,0.8886448495497474,0.6242603550295858,3640,4426,411,badstress_00116,8.0,0.05,3.8,0.14,1.3,0.045,0.7,0.55,0.12,6.0,1.2
8477,0.8337855373363218,0.7191596674094575,0.9065934065934066,0.7869408043380027,0.6934306569343066,0.9215302987992181,0.8910207214121258,0.2887537993920973,3640,4426,411,badstress_00117,8.0,0.05,3.8,0.2,0.9,0.015,0.7,0.55,0.12,6.0,1.2
8477,0.8683496519995282,0.7599683722355915,0.9068681318681319,0.8601446000903751,0.6155717761557178,0.9205242610150586,0.8913603371575743,0.4080645161290323,3640,4426,411,badstress_00118,8.0,0.05,3.8,0.2,0.9,0.03,0.7,0.55,0.12,6.0,1.2
8477,0.8861625575085526,0.78699189023855,0.9068681318681319,0.8994577496610935,0.559610705596107,0.9205242610150586,0.8908033117028418,0.5450236966824644,3640,4426,411,badstress_00119,8.0,0.05,3.8,0.2,0.9,0.045,0.7,0.55,0.12,6.0,1.2
8477,0.8383862215406394,0.7234999362601982,0.9068681318681319,0.7966561229100768,0.681265206812652,0.9215522054718035,0.8910791003285318,0.29850746268656714,3640,4426,411,badstress_00120,8.0,0.05,3.8,0.2,1.1,0.015,0.7,0.55,0.12,6.0,1.2
8477,0.871062876017459,0.7630729229109935,0.9068681318681319,0.8664708540442838,0.6034063260340633,0.9205242610150586,0.8910315985130112,0.42248722316865417,3640,4426,411,badstress_00121,8.0,0.05,3.8,0.2,1.1,0.03,0.7,0.55,0.12,6.0,1.2
8477,0.8869883213400968,0.7874280789292106,0.9068681318681319,0.9019430637144148,0.5498783454987834,0.9205242610150586,0.8902765388046388,0.5552825552825553,3640,4426,411,badstress_00122,8.0,0.05,3.8,0.2,1.1,0.045,0.7,0.55,0.12,6.0,1.2
8477,0.8457001297628878,0.727575631546344,0.9068681318681319,0.8149570718481699,0.635036496350365,0.9215522054718035,0.8888615081320848,0.3118279569892473,3640,4426,411,badstress_00123,8.0,0.05,3.8,0.2,1.3,0.015,0.7,0.55,0.12,6.0,1.2
8477,0.8740120325586882,0.7633327547099786,0.9068681318681319,0.8755083596927248,0.5669099756690997,0.9205242610150586,0.8889653590272998,0.43796992481203006,3640,4426,411,badstress_00124,8.0,0.05,3.8,0.2,1.3,0.03,0.7,0.55,0.12,6.0,1.2
8477,0.887814085171641,0.786026667285381,0.9068681318681319,0.9055580659737912,0.5279805352798054,0.9205242610150586,0.8888888888888888,0.5680628272251309,3640,4426,411,badstress_00125,8.0,0.05,3.8,0.2,1.3,0.045,0.7,0.55,0.12,6.0,1.2
8477,0.8272973929456175,0.7114373215431734,0.9065934065934066,0.7745142340713963,0.6934306569343066,0.9215302987992181,0.8894654903995849,0.27351247600767753,3640,4426,411,badstress_00126,8.0,0.05,3.8,0.28,0.9,0.015,0.7,0.55,0.12,6.0,1.2
8477,0.8622154063937714,0.7498586968790367,0.9068681318681319,0.8483958427474018,0.6155717761557178,0.9205242610150586,0.8900213320692107,0.37648809523809523,3640,4426,411,badstress_00127,8.0,0.05,3.8,0.28,0.9,0.03,0.7,0.55,0.12,6.0,1.2
8477,0.8817978058275333,0.7776250902266089,0.9068681318681319,0.8910980569362856,0.559610705596107,0.9205242610150586,0.8898916967509025,0.5010893246187363,3640,4426,411,badstress_00128,8.0,0.05,3.8,0.28,0.9,0.045,0.7,0.55,0.12,6.0,1.2
8477,0.832487908458181,0.7162368313668374,0.9068681318681319,0.7853592408495256,0.681265206812652,0.9215522054718035,0.8896851804453545,0.2834008097165992,3640,4426,411,badstress_00129,8.0,0.05,3.8,0.28,1.1,0.015,0.7,0.55,0.12,6.0,1.2
8477,0.8655184617199481,0.7535986066228135,0.9068681318681319,0.8558517849073656,0.6034063260340633,0.9205242610150586,0.8898285177354944,0.3911671924290221,3640,4426,411,badstress_00130,8.0,0.05,3.8,0.28,1.1,0.03,0.7,0.55,0.12,6.0,1.2
8477,0.8830954347056742,0.7789176709719864,0.9068681318681319,0.894487121554451,0.5498783454987834,0.9205242610150586,0.8894630420130307,0.5136363636363637,3640,4426,411,badstress_00131,8.0,0.05,3.8,0.28,1.1,0.045,0.7,0.55,0.12,6.0,1.2
8477,0.8409814792969211,0.7214303211869927,0.9068681318681319,0.8059195661997288,0.635036496350365,0.9215522054718035,0.8877551020408163,0.2976054732041049,3640,4426,411,badstress_00132,8.0,0.05,3.8,0.28,1.3,0.015,0.7,0.55,0.12,6.0,1.2
8477,0.869647280877669,0.7555376929728287,0.9068681318681319,0.8671486669679168,0.5669099756690997,0.9205242610150586,0.8880148079592781,0.4094903339191564,3640,4426,411,badstress_00133,8.0,0.05,3.8,0.28,1.3,0.03,0.7,0.55,0.12,6.0,1.2
8477,0.8847469623687625,0.7791623963963986,0.9068681318681319,0.8996836873023045,0.5279805352798054,0.9205242610150586,0.8882444791434307,0.5318627450980392,3640,4426,411,badstress_00134,8.0,0.05,3.8,0.28,1.3,0.045,0.7,0.55,0.12,6.0,1.2
8477,0.8468797923793795,0.7330377550534247,0.9063186813186813,0.8147311342069589,0.6666666666666666,0.9215083798882682,0.8914709517923363,0.3215962441314554,3640,4426,411,badstress_00135,8.0,0.05,4.4,0.14,0.9,0.015,0.7,0.55,0.12,6.0,1.2
8477,0.8768432228382682,0.7720623012923866,0.9068681318681319,0.8786714866696792,0.5912408759124088,0.9205242610150586,0.8913591565436626,0.4602272727272727,3640,4426,411,badstress_00136,8.0,0.05,4.4,0.14,0.9,0.03,0.7,0.55,0.12,6.0,1.2
8477,0.8905273091895718,0.7931565446429846,0.9068681318681319,0.9103027564392228,0.5328467153284672,0.9205242610150586,0.8897968197879859,0.6033057851239669,3640,4426,411,badstress_00137,8.0,0.05,4.4,0.14,0.9,0.045,0.7,0.55,0.12,6.0,1.2
8477,0.8499469151822578,0.7363836522073771,0.9065934065934066,0.8210573881608676,0.6593673965936739,0.9215302987992181,0.8915603532875368,0.3304878048780488,3640,4426,411,badstress_00138,8.0,0.05,4.4,0.14,1.1,0.015,0.7,0.55,0.12,6.0,1.2
8477,0.8783767842397074,0.7740260717588359,0.9068681318681319,0.8822864889290556,0.583941605839416,0.9205242610150586,0.8911455956184391,0.4715127701375246,3640,4426,411,badstress_00139,8.0,0.05,4.4,0.14,1.1,0.03,0.7,0.55,0.12,6.0,1.2
8477,0.8911171404978177,0.7938522505090475,0.9068681318681319,0.9118843199276999,0.5279805352798054,0.9205242610150586,0.8895746087723165,0.6129943502824858,3640,4426,411,badstress_00140,8.0,0.05,4.4,0.14,1.1,0.045,0.7,0.55,0.12,6.0,1.2
8477,0.855609295741418,0.7397333983185715,0.9068681318681319,0.8352914595571622,0.6204379562043796,0.9215522054718035,0.8895572666025024,0.34506089309878213,3640,4426,411,badstress_00141,8.0,0.05,4.4,0.14,1.3,0.015,0.7,0.55,0.12,6.0,1.2
8477,0.880146278164445,0.7733759008981256,0.9068681318681319,0.8883868052417533,0.5547445255474452,0.9205242610150586,0.8893915403754806,0.4851063829787234,3640,4426,411,badstress_00142,8.0,0.05,4.4,0.14,1.3,0.03,0.7,0.55,0.12,6.0,1.2
8477,0.8914710392827652,0.7928481587230917,0.9068681318681319,0.9136918210573881,0.5158150851581509,0.9205242610150586,0.8887912087912088,0.6217008797653959,3640,4426,411,badstress_00143,8.0,0.05,4.4,0.14,1.3,0.045,0.7,0.55,0.12,6.0,1.2
8477,0.8309543470567418,0.716692827179538,0.9063186813186813,0.780840488025305,0.7031630170316302,0.921765856384465,0.8914108847046686,0.28305582761998044,3640,4426,411,badstress_00144,8.0,0.05,4.4,0.2,0.9,0.015,0.7,0.55,0.12,6.0,1.2
8477,0.8664621918131414,0.7577297036064238,0.9068681318681319,0.8558517849073656,0.6228710462287105,0.9205242610150586,0.891503883266651,0.3987538940809969,3640,4426,411,badstress_00145,8.0,0.05,4.4,0.2,0.9,0.03,0.7,0.55,0.12,6.0,1.2
8477,0.8849828948920608,0.7850930848235967,0.9068681318681319,0.8967464979665613,0.5644768856447688,0.9205242610150586,0.8909090909090909,0.5321100917431193,3640,4426,411,badstress_00146,8.0,0.05,4.4,0.2,0.9,0.045,0.7,0.55,0.12,6.0,1.2
8477,0.8356729975227085,0.7210828606695655,0.9065934065934066,0.7907817442385902,0.6909975669099757,0.9217877094972067,0.891492613346918,0.2924819773429454,3640,4426,411,badstress_00147,8.0,0.05,4.4,0.2,1.1,0.015,0.7,0.55,0.12,6.0,1.2
8477,0.8691754158310723,0.7607458315360726,0.9068681318681319,0.8621780388612743,0.610705596107056,0.9205242610150586,0.8911723493694536,0.4121510673234811,3640,4426,411,badstress_00148,8.0,0.05,4.4,0.2,1.1,0.03,0.7,0.55,0.12,6.0,1.2
8477,0.885808658723605,0.7855020886524828,0.9068681318681319,0.8992318120198826,0.5547445255474452,0.9205242610150586,0.8903803131991052,0.5415676959619953,3640,4426,411,badstress_00149,8.0,0.05,4.4,0.2,1.1,0.045,0.7,0.55,0.12,6.0,1.2
8477,0.843694703314852,0.7253750893014326,0.9068681318681319,0.8106642566651604,0.6399026763990268,0.9215522054718035,0.8892193308550186,0.3058139534883721,3640,4426,411,badstress_00150,8.0,0.05,4.4,0.2,1.3,0.015,0.7,0.55,0.12,6.0,1.2
8477,0.8724784711572491,0.7612343187022442,0.9068681318681319,0.8721192950745594,0.5717761557177615,0.9205242610150586,0.8889912482726854,0.42805100182149364,3640,4426,411,badstress_00151,8.0,0.05,4.4,0.2,1.3,0.03,0.7,0.55,0.12,6.0,1.2
8477,0.8868703550784476,0.7846185741576089,0.9068681318681319,0.903298689561681,0.5328467153284672,0.9205242610150586,0.8890371358683566,0.5558375634517766,3640,4426,411,badstress_00152,8.0,0.05,4.4,0.2,1.3,0.045,0.7,0.55,0.12,6.0,1.2
8477,0.8218709449097558,0.7061845272165616,0.9063186813186813,0.763443289652056,0.7031630170316302,0.921765856384465,0.8892105263157895,0.26320582877959925,3640,4426,411,badstress_00153,8.0,0.05,4.4,0.28,0.9,0.015,0.7,0.55,0.12,6.0,1.2
8477,0.8578506547127521,0.744034904355091,0.9068681318681319,0.8393583370989607,0.6228710462287105,0.9205242610150586,0.8896072796934866,0.35804195804195804,3640,4426,411,badstress_00154,8.0,0.05,4.4,0.28,0.9,0.03,0.7,0.55,0.12,6.0,1.2
8477,0.8784947505013566,0.7716608604683385,0.9068681318681319,0.8843199276999548,0.5644768856447688,0.9205242610150586,0.8895454545454545,0.4725050916496945,3640,4426,411,badstress_00155,8.0,0.05,4.4,0.28,0.9,0.045,0.7,0.55,0.12,6.0,1.2
8477,0.8277692579922142,0.7116161723790074,0.9065934065934066,0.7756439222774514,0.6909975669099757,0.9217877094972067,0.8896087069188909,0.27360308285163776,3640,4426,411,badstress_00156,8.0,0.05,4.4,0.28,1.1,0.015,0.7,0.55,0.12,6.0,1.2
8477,0.8617435413471747,0.7484733171003052,0.9068681318681319,0.8479439674649797,0.610705596107056,0.9205242610150586,0.8895472860867504,0.37351190476190477,3640,4426,411,badstress_00157,8.0,0.05,4.4,0.28,1.1,0.03,0.7,0.55,0.12,6.0,1.2
8477,0.8803822106877434,0.7740156350098029,0.9068681318681319,0.8888386805241754,0.5547445255474452,0.9205242610150586,0.8892405063291139,0.48822269807280516,3640,4426,411,badstress_00158,8.0,0.05,4.4,0.28,1.1,0.045,0.7,0.55,0.12,6.0,1.2
8477,0.837442491447446,0.7174326711583361,0.9068681318681319,0.798689561680976,0.6399026763990268,0.9215522054718035,0.8877448518332496,0.28806133625410735,3640,4426,411,badstress_00159,8.0,0.05,4.4,0.28,1.3,0.015,0.7,0.55,0.12,6.0,1.2
8477,0.8666981243364398,0.7512119065918178,0.9068681318681319,0.8610483506552191,0.5717761557177615,0.9205242610150586,0.887724202189611,0.39297658862876256,3640,4426,411,badstress_00160,8.0,0.05,4.4,0.28,1.3,0.03,0.7,0.55,0.12,6.0,1.2
8477,0.8827415359207267,0.775612639354956,0.9068681318681319,0.895390872119295,0.5328467153284672,0.9205242610150586,0.8881667413715822,0.5104895104895105,3640,4426,411,badstress_00161,8.0,0.05,4.4,0.28,1.3,0.045,0.7,0.55,0.12,6.0,1.2
8477,0.8495930163973103,0.7333712239154622,0.9065934065934066,0.8224130140081337,0.6374695863746959,0.9207589285714286,0.8899755501222494,0.32627646326276466,3640,4426,411,badstress_00162,8.0,0.07,3.2,0.14,0.9,0.015,0.7,0.55,0.12,6.0,1.2
8477,0.8789666155479533,0.7741665050763572,0.9068681318681319,0.8840939900587438,0.5766423357664233,0.9205242610150586,0.8907352606419303,0.4759036144578313,3640,4426,411,badstress_00163,8.0,0.07,3.2,0.14,0.9,0.03,0.7,0.55,0.12,6.0,1.2
8477,0.8921788368526601,0.7964711346334657,0.9068681318681319,0.9139177586985991,0.5279805352798054,0.9205242610150586,0.8897932248130225,0.6289855072463768,3640,4426,411,badstress_00164,8.0,0.07,3.2,0.14,0.9,0.045,0.7,0.55,0.12,6.0,1.2
8477,0.8523062404152413,0.736271471001356,0.9068681318681319,0.8280614550384094,0.6301703163017032,0.9207810320781032,0.8899951432734337,0.33462532299741604,3640,4426,411,badstress_00165,8.0,0.07,3.2,0.14,1.1,0.015,0.7,0.55,0.12,6.0,1.2
8477,0.8802642444260942,0.7757241955324096,0.9068681318681319,0.8872571170356981,0.5693430656934306,0.9205242610150586,0.8904761904761904,0.4864864864864865,3640,4426,411,badstress_00166,8.0,0.07,3.2,0.14,1.1,0.03,0.7,0.55,0.12,6.0,1.2
8477,0.8925327356376076,0.7966162933588641,0.9068681318681319,0.9150474469046543,0.5231143552311436,0.9205242610150586,0.8895233911706567,0.636094674556213,3640,4426,411,badstress_00167,8.0,0.07,3.2,0.14,1.1,0.045,0.7,0.55,0.12,6.0,1.2
8477,0.8572608234045063,0.7391567118454322,0.9068681318681319,0.8407139629462268,0.5961070559610706,0.9207810320781032,0.888278825495345,0.3485064011379801,3640,4426,411,badstress_00168,8.0,0.07,3.2,0.14,1.3,0.015,0.7,0.55,0.12,6.0,1.2
8477,0.8813259407809366,0.7739715920946231,0.9068681318681319,0.8917758698599186,0.5425790754257908,0.9205242610150586,0.8887637919387525,0.4955555555555556,3640,4426,411,badstress_00169,8.0,0.07,3.2,0.14,1.3,0.03,0.7,0.55,0.12,6.0,1.2
8477,0.8926507018992568,0.7950289300284513,0.9068681318681319,0.9164030727519205,0.5109489051094891,0.9205242610150586,0.8886941279579317,0.6422018348623854,3640,4426,411,badstress_00170,8.0,0.07,3.2,0.14,1.3,0.045,0.7,0.55,0.12,6.0,1.2
8477,0.8390940191105344,0.722687048235423,0.9065934065934066,0.7995933122458202,0.6666666666666666,0.9207589285714286,0.8907626478731437,0.29782608695652174,3640,4426,411,badstress_00171,8.0,0.07,3.2,0.2,0.9,0.015,0.7,0.55,0.12,6.0,1.2
8477,0.8728323699421965,0.766242045954529,0.9068681318681319,0.8698599186624492,0.6034063260340633,0.9205242610150586,0.8914100486223663,0.43356643356643354,3640,4426,411,badstress_00172,8.0,0.07,3.2,0.2,0.9,0.03,0.7,0.55,0.12,6.0,1.2
8477,0.8898195116196768,0.7946886343004751,0.9068681318681319,0.9069136918210574,0.5547445255474452,0.9205242610150586,0.8912078152753108,0.5891472868217055,3640,4426,411,badstress_00173,8.0,0.07,3.2,0.2,0.9,0.045,0.7,0.55,0.12,6.0,1.2
8477,0.8432228382682553,0.7268520660666756,0.9068681318681319,0.8081789426118391,0.656934306569343,0.9207810320781032,0.8909090909090909,0.30786773090079816,3640,4426,411,badstress_00174,8.0,0.07,3.2,0.2,1.1,0.015,0.7,0.55,0.12,6.0,1.2
8477,0.8750737289135307,0.7690474523230648,0.9068681318681319,0.8750564844103027,0.5936739659367397,0.9205242610150586,0.8911642890013806,0.44770642201834865,3640,4426,411,badstress_00175,8.0,0.07,3.2,0.2,1.1,0.03,0.7,0.55,0.12,6.0,1.2
8477,0.8904093429279226,0.7950374784782585,0.9068681318681319,0.9087211929507456,0.5474452554744526,0.9205242610150586,0.8908084163898118,0.598404255319149,3640,4426,411,badstress_00176,8.0,0.07,3.2,0.2,1.1,0.045,0.7,0.55,0.12,6.0,1.2
8477,0.8499469151822578,0.7302389041835423,0.9068681318681319,0.8253502033438771,0.610705596107056,0.9207810320781032,0.8885915835563123,0.3213828425096031,3640,4426,411,badstress_00177,8.0,0.07,3.2,0.2,1.3,0.015,0.7,0.55,0.12,6.0,1.2
8477,0.8771971216232157,0.7675655411546427,0.9068681318681319,0.8827383642114777,0.5547445255474452,0.9205242610150586,0.8887625113739763,0.46060606060606063,3640,4426,411,badstress_00178,8.0,0.07,3.2,0.2,1.3,0.03,0.7,0.55,0.12,6.0,1.2
8477,0.890645275451221,0.7919605714032003,0.9068681318681319,0.911432444645278,0.5231143552311436,0.9205242610150586,0.8891337888472559,0.6073446327683616,3640,4426,411,badstress_00179,8.0,0.07,3.2,0.2,1.3,0.045,0.7,0.55,0.12,6.0,1.2
8477,0.8337855373363218,0.7159603895419795,0.9065934065934066,0.789200180750113,0.6690997566909975,0.9207589285714286,0.891298800714468,0.28234086242299794,3640,4426,411,badstress_00180,8.0,0.07,3.2,0.28,0.9,0.015,0.7,0.55,0.12,6.0,1.2
8477,0.8679957532145807,0.7578277555781998,0.9068681318681319,0.8603705377315861,0.6058394160583942,0.9205242610150586,0.8909686476368741,0.4035656401944895,3640,4426,411,badstress_00181,8.0,0.07,3.2,0.28,0.9,0.03,0.7,0.55,0.12,6.0,1.2
8477,0.8862805237702017,0.7869032534463609,0.9068681318681319,0.8999096249435156,0.5571776155717761,0.9205242610150586,0.8906529516994633,0.5465393794749404,3640,4426,411,badstress_00182,8.0,0.07,3.2,0.28,0.9,0.045,0.7,0.55,0.12,6.0,1.2
8477,0.8382682552789902,0.7201780983972083,0.9068681318681319,0.798689561680976,0.656934306569343,0.9207810320781032,0.8908770161290323,0.2922077922077922,3640,4426,411,badstress_00183,8.0,0.07,3.2,0.28,1.1,0.015,0.7,0.55,0.12,6.0,1.2
8477,0.8705910109708623,0.7606611293181543,0.9068681318681319,0.8664708540442838,0.5936739659367397,0.9205242610150586,0.8906177426846261,0.4170940170940171,3640,4426,411,badstress_00184,8.0,0.07,3.2,0.28,1.1,0.03,0.7,0.55,0.12,6.0,1.2
8477,0.8871062876017459,0.7873371384762763,0.9068681318681319,0.9023949389968369,0.5474452554744526,0.9205242610150586,0.8901270336527747,0.556930693069307,3640,4426,411,badstress_00185,8.0,0.07,3.2,0.28,1.1,0.045,0.7,0.55,0.12,6.0,1.2
8477,0.8462899610711336,0.724978131998458,0.9068681318681319,0.8183461364663352,0.610705596107056,0.9207810320781032,0.8886162904808635,0.3075980392156863,3640,4426,411,badstress_00186,8.0,0.07,3.2,0.28,1.3,0.015,0.7,0.55,0.12,6.0,1.2
8477,0.873894066297039,0.7610725806735087,0.9068681318681319,0.8764121102575689,0.5547445255474452,0.9205242610150586,0.8884562528630325,0.4342857142857143,3640,4426,411,badstress_00187,8.0,0.07,3.2,0.28,1.3,0.03,0.7,0.55,0.12,6.0,1.2
8477,0.8880500176949393,0.7858208628568434,0.9068681318681319,0.9064618165386353,0.5231143552311436,0.9205242610150586,0.88859357696567,0.5718085106382979,3640,4426,411,badstress_00188,8.0,0.07,3.2,0.28,1.3,0.045,0.7,0.55,0.12,6.0,1.2
8477,0.8462899610711336,0.7315012756381728,0.906043956043956,0.8142792589245368,0.6618004866180048,0.9214864487286951,0.8914172644076181,0.31812865497076026,3640,4426,411,badstress_00189,8.0,0.07,3.8,0.14,0.9,0.015,0.7,0.55,0.12,6.0,1.2
8477,0.8768432228382682,0.7713917894468402,0.9068681318681319,0.8791233619521012,0.5863746958637469,0.9205242610150586,0.8910006869704603,0.4599236641221374,3640,4426,411,badstress_00190,8.0,0.07,3.8,0.14,0.9,0.03,0.7,0.55,0.12,6.0,1.2
8477,0.8905273091895718,0.792789115600334,0.9068681318681319,0.9105286940804338,0.5304136253041363,0.9205242610150586,0.8896247240618101,0.6038781163434903,3640,4426,411,badstress_00191,8.0,0.07,3.8,0.14,0.9,0.045,0.7,0.55,0.12,6.0,1.2
8477,0.8494750501356612,0.7349691778811995,0.9063186813186813,0.8208314505196566,0.6545012165450121,0.9215083798882682,0.8915337423312883,0.32725060827250607,3640,4426,411,badstress_00192,8.0,0.07,3.8,0.14,1.1,0.015,0.7,0.55,0.12,6.0,1.2
8477,0.8783767842397074,0.773347057498078,0.9068681318681319,0.8827383642114777,0.5790754257907542,0.9205242610150586,0.8907888736890105,0.47128712871287126,3640,4426,411,badstress_00193,8.0,0.07,3.8,0.14,1.1,0.03,0.7,0.55,0.12,6.0,1.2
8477,0.8911171404978177,0.7934815915405604,0.9068681318681319,0.912110257568911,0.5255474452554745,0.9205242610150586,0.8894029521921129,0.6136363636363636,3640,4426,411,badstress_00194,8.0,0.07,3.8,0.14,1.1,0.045,0.7,0.55,0.12,6.0,1.2
8477,0.8549014981715229,0.7381899354364646,0.9063186813186813,0.8346136466335291,0.6180048661800487,0.9215083798882682,0.8896917148362236,0.3409395973154362,3640,4426,411,badstress_00195,8.0,0.07,3.8,0.14,1.3,0.015,0.7,0.55,0.12,6.0,1.2
8477,0.8800283119027958,0.7727808959636185,0.9068681318681319,0.8883868052417533,0.5523114355231143,0.9205242610150586,0.8891904115784712,0.4840085287846482,3640,4426,411,badstress_00196,8.0,0.07,3.8,0.14,1.3,0.03,0.7,0.55,0.12,6.0,1.2
8477,0.8914710392827652,0.7924677980083321,0.9068681318681319,0.9139177586985991,0.51338199513382,0.9205242610150586,0.8886203866432337,0.6224188790560472,3640,4426,411,badstress_00197,8.0,0.07,3.8,0.14,1.3,0.045,0.7,0.55,0.12,6.0,1.2
8477,0.8306004482717942,0.7164023368595361,0.906043956043956,0.7801626751016719,0.7055961070559611,0.9214864487286951,0.8922480620155039,0.2821011673151751,3640,4426,411,badstress_00198,8.0,0.07,3.8,0.2,0.9,0.015,0.7,0.55,0.12,6.0,1.2
8477,0.8670520231213873,0.7587193073932729,0.9068681318681319,0.8569814731134207,0.6228710462287105,0.9205242610150586,0.891631405735778,0.40188383045525905,3640,4426,411,badstress_00199,8.0,0.07,3.8,0.2,0.9,0.03,0.7,0.55,0.12,6.0,1.2
8477,0.8855727262003067,0.7867316003171924,0.9068681318681319,0.8976502485314053,0.5669099756690997,0.9205242610150586,0.8912068192014356,0.5381062355658198,3640,4426,411,badstress_00200,8.0,0.07,3.8,0.2,0.9,0.045,0.7,0.55,0.12,6.0,1.2
8477,0.8355550312610593,0.721064789380827,0.9063186813186813,0.7905558065973791,0.6934306569343066,0.9215083798882682,0.8923743942871717,0.29200819672131145,3640,4426,411,badstress_00201,8.0,0.07,3.8,0.2,1.1,0.015,0.7,0.55,0.12,6.0,1.2
8477,0.8698832134009673,0.7619744308572703,0.9068681318681319,0.8635336647085404,0.610705596107056,0.9205242610150586,0.8913246268656716,0.41625207296849087,3640,4426,411,badstress_00202,8.0,0.07,3.8,0.2,1.1,0.03,0.7,0.55,0.12,6.0,1.2
8477,0.8865164562935001,0.7874302949381802,0.9068681318681319,0.9003615002259376,0.5571776155717761,0.9205242610150586,0.8907018328118015,0.5491606714628298,3640,4426,411,badstress_00203,8.0,0.07,3.8,0.2,1.1,0.045,0.7,0.55,0.12,6.0,1.2
8477,0.8431048720066061,0.724744358202917,0.9063186813186813,0.8097605061003164,0.6423357664233577,0.9215083798882682,0.8897715988083416,0.3037974683544304,3640,4426,411,badstress_00204,8.0,0.07,3.8,0.2,1.3,0.015,0.7,0.55,0.12,6.0,1.2
8477,0.8729503362038457,0.7617410963677842,0.9068681318681319,0.8732489832806145,0.5693430656934306,0.9205242610150586,0.8889144434222631,0.430939226519337,3640,4426,411,badstress_00205,8.0,0.07,3.8,0.2,1.3,0.03,0.7,0.55,0.12,6.0,1.2
8477,0.8873422201250443,0.7853187448855911,0.9068681318681319,0.9044283777677361,0.5304136253041363,0.9205242610150586,0.8889629136131468,0.5618556701030928,3640,4426,411,badstress_00206,8.0,0.07,3.8,0.2,1.3,0.045,0.7,0.55,0.12,6.0,1.2
8477,0.8215170461248084,0.7059913575545619,0.906043956043956,0.7623136014460009,0.7104622871046229,0.9214864487286951,0.8925925925925926,0.26118067978533094,3640,4426,411,badstress_00207,8.0,0.07,3.8,0.28,0.9,0.015,0.7,0.55,0.12,6.0,1.2
8477,0.8586764185442963,0.7456065437593135,0.9068681318681319,0.8404880253050158,0.6277372262773723,0.9205242610150586,0.8908045977011494,0.36083916083916084,3640,4426,411,badstress_00208,8.0,0.07,3.8,0.28,0.9,0.03,0.7,0.55,0.12,6.0,1.2
8477,0.8795564468561992,0.7748103562658833,0.9068681318681319,0.8856755535472209,0.5717761557177615,0.9205242610150586,0.890302066772655,0.48155737704918034,3640,4426,411,badstress_00209,8.0,0.07,3.8,0.28,0.9,0.045,0.7,0.55,0.12,6.0,1.2
8477,0.8271794266839684,0.7110023219195396,0.9063186813186813,0.7742882964301853,0.6958637469586375,0.9215083798882682,0.8919833420093701,0.27109004739336495,3640,4426,411,badstress_00210,8.0,0.07,3.8,0.28,1.1,0.015,0.7,0.55,0.12,6.0,1.2
8477,0.8622154063937714,0.7492106432664488,0.9068681318681319,0.8486217803886127,0.6131386861313869,0.9205242610150586,0.8904694167852063,0.37444279346210996,3640,4426,411,badstress_00211,8.0,0.07,3.8,0.28,1.1,0.03,0.7,0.55,0.12,6.0,1.2
8477,0.8810900082576383,0.7761672521862719,0.9068681318681319,0.8897424310890194,0.559610705596107,0.9205242610150586,0.8897424310890194,0.4946236559139785,3640,4426,411,badstress_00212,8.0,0.07,3.8,0.28,1.1,0.045,0.7,0.55,0.12,6.0,1.2
8477,0.8367346938775511,0.7166722451186329,0.9063186813186813,0.7973339358337099,0.6447688564476886,0.9215083798882682,0.8895891101588101,0.2849462365591398,3640,4426,411,badstress_00213,8.0,0.07,3.8,0.28,1.3,0.015,0.7,0.55,0.12,6.0,1.2
8477,0.8671699893830365,0.7516383371628321,0.9068681318681319,0.8619521012200633,0.5717761557177615,0.9205242610150586,0.8884489986027014,0.3936348408710218,3640,4426,411,badstress_00214,8.0,0.07,3.8,0.28,1.3,0.03,0.7,0.55,0.12,6.0,1.2
8477,0.8832134009673234,0.7766104410823044,0.9068681318681319,0.8962946226841392,0.5328467153284672,0.9205242610150586,0.8882669055082848,0.5152941176470588,3640,4426,411,badstress_00215,8.0,0.07,3.8,0.28,1.3,0.045,0.7,0.55,0.12,6.0,1.2
8477,0.8454641972395894,0.7309663123042848,0.9057692307692308,0.8124717577948486,0.6666666666666666,0.9214645053102292,0.8916439375154972,0.3163972286374134,3640,4426,411,badstress_00216,8.0,0.07,4.4,0.14,0.9,0.015,0.7,0.55,0.12,6.0,1.2
8477,0.8764893240533207,0.7713859520502249,0.9068681318681319,0.8779936737460461,0.5912408759124088,0.9205242610150586,0.8912844036697247,0.4576271186440678,3640,4426,411,badstress_00217,8.0,0.07,4.4,0.14,0.9,0.03,0.7,0.55,0.12,6.0,1.2
8477,0.8904093429279226,0.7928721933514161,0.9068681318681319,0.9100768187980117,0.5328467153284672,0.9205242610150586,0.8897724762535896,0.6016483516483516,3640,4426,411,badstress_00218,8.0,0.07,4.4,0.14,0.9,0.045,0.7,0.55,0.12,6.0,1.2
8477,0.8486492863041171,0.7344121748935079,0.906043956043956,0.8190239493899684,0.6593673965936739,0.9214864487286951,0.8917589175891759,0.32533013205282113,3640,4426,411,badstress_00219,8.0,0.07,4.4,0.14,1.1,0.015,0.7,0.55,0.12,6.0,1.2
8477,0.8780228854547599,0.7733343670480309,0.9068681318681319,0.8816086760054225,0.583941605839416,0.9205242610150586,0.8910710207810002,0.46875,3640,4426,411,badstress_00220,8.0,0.07,4.4,0.14,1.1,0.03,0.7,0.55,0.12,6.0,1.2
8477,0.8909991742361685,0.7935644833583536,0.9068681318681319,0.9116583822864889,0.5279805352798054,0.9205242610150586,0.8895502645502645,0.6112676056338028,3640,4426,411,badstress_00221,8.0,0.07,4.4,0.14,1.1,0.045,0.7,0.55,0.12,6.0,1.2
8477,0.8543116668632771,0.737649281290663,0.9063186813186813,0.833258020786263,0.6204379562043796,0.9215083798882682,0.8897466827503016,0.3390957446808511,3640,4426,411,badstress_00222,8.0,0.07,4.4,0.14,1.3,0.015,0.7,0.55,0.12,6.0,1.2
8477,0.8797923793794975,0.7726647532726547,0.9068681318681319,0.8877089923181202,0.5547445255474452,0.9205242610150586,0.8893164327750113,0.4820295983086681,3640,4426,411,badstress_00223,8.0,0.07,4.4,0.14,1.3,0.03,0.7,0.55,0.12,6.0,1.2
8477,0.891353073021116,0.7925577515745724,0.9068681318681319,0.9134658834161772,0.5158150851581509,0.9205242610150586,0.8887667619256979,0.6198830409356725,3640,4426,411,badstress_00224,8.0,0.07,4.4,0.14,1.3,0.045,0.7,0.55,0.12,6.0,1.2
8477,0.8267075616373717,0.7127193855658708,0.9057692307692308,0.772028920018075,0.7153284671532847,0.9219798657718121,0.892400104465918,0.27425373134328357,3640,4426,411,badstress_00225,8.0,0.07,4.4,0.2,0.9,0.015,0.7,0.55,0.12,6.0,1.2
8477,0.864810664150053,0.7559358679110889,0.9068681318681319,0.8520108450067782,0.6301703163017032,0.9205242610150586,0.8917001655237645,0.39123867069486407,3640,4426,411,badstress_00226,8.0,0.07,4.4,0.2,0.9,0.03,0.7,0.55,0.12,6.0,1.2
8477,0.8841571310605167,0.7843433500893888,0.9068681318681319,0.894487121554451,0.5717761557177615,0.9205242610150586,0.8912651958577218,0.5233853006681515,3640,4426,411,badstress_00227,8.0,0.07,4.4,0.2,0.9,0.045,0.7,0.55,0.12,6.0,1.2
8477,0.8318980771499351,0.7175225317625832,0.906043956043956,0.7828739267962043,0.7031630170316302,0.9220016773832821,0.89258114374034,0.28388998035363455,3640,4426,411,badstress_00228,8.0,0.07,4.4,0.2,1.1,0.015,0.7,0.55,0.12,6.0,1.2
8477,0.8677598206912823,0.7592821622720848,0.9068681318681319,0.8587889742431088,0.6180048661800487,0.9205242610150586,0.8914165103189493,0.405103668261563,3640,4426,411,badstress_00229,8.0,0.07,4.4,0.2,1.1,0.03,0.7,0.55,0.12,6.0,1.2
8477,0.8852188274153592,0.7852596799098756,0.9068681318681319,0.8974243108901943,0.5620437956204379,0.9205242610150586,0.8907826867010541,0.5347222222222222,3640,4426,411,badstress_00230,8.0,0.07,4.4,0.2,1.1,0.045,0.7,0.55,0.12,6.0,1.2
8477,0.8403916479886753,0.7216501147323671,0.9063186813186813,0.8041120650700406,0.6472019464720195,0.921765856384465,0.8899724931232809,0.29588431590656283,3640,4426,411,badstress_00231,8.0,0.07,4.4,0.2,1.3,0.015,0.7,0.55,0.12,6.0,1.2
8477,0.8711808422791082,0.7592611182178554,0.9068681318681319,0.8694080433800271,0.5742092457420924,0.9205242610150586,0.8888888888888888,0.4199288256227758,3640,4426,411,badstress_00232,8.0,0.07,4.4,0.2,1.3,0.03,0.7,0.55,0.12,6.0,1.2
8477,0.8862805237702017,0.7836619704998733,0.9068681318681319,0.9019430637144148,0.5352798053527981,0.9205242610150586,0.889086859688196,0.5486284289276808,3640,4426,411,badstress_00233,8.0,0.07,4.4,0.2,1.3,0.045,0.7,0.55,0.12,6.0,1.2
8477,0.8153828005190515,0.7011216800777594,0.9057692307692308,0.7489832806145504,0.7299270072992701,0.9219798657718121,0.8932902182700081,0.25210084033613445,3640,4426,411,badstress_00234,8.0,0.07,4.4,0.28,0.9,0.015,0.7,0.55,0.12,6.0,1.2
8477,0.8543116668632771,0.7412416726616576,0.9068681318681319,0.8305467690917306,0.6447688564476886,0.9205242610150586,0.8911515151515151,0.34595300261096606,3640,4426,411,badstress_00235,8.0,0.07,4.4,0.28,0.9,0.03,0.7,0.55,0.12,6.0,1.2
8477,0.8764893240533207,0.7708646207219255,0.9068681318681319,0.8784455490284682,0.5863746958637469,0.9205242610150586,0.8907216494845361,0.45817490494296575,3640,4426,411,badstress_00236,8.0,0.07,4.4,0.28,0.9,0.045,0.7,0.55,0.12,6.0,1.2
8477,0.8217529786481066,0.7064761088094323,0.906043956043956,0.762539539087212,0.7128953771289538,0.9220016773832821,0.8926209997355197,0.26184092940125114,3640,4426,411,badstress_00237,8.0,0.07,4.4,0.28,1.1,0.015,0.7,0.55,0.12,6.0,1.2
8477,0.858440486020998,0.745247713839997,0.9068681318681319,0.8400361500225938,0.6277372262773723,0.9205242610150586,0.8907522759942501,0.3598326359832636,3640,4426,411,badstress_00238,8.0,0.07,4.4,0.28,1.1,0.03,0.7,0.55,0.12,6.0,1.2
8477,0.8786127167630058,0.7729370924699118,0.9068681318681319,0.8838680524175327,0.5717761557177615,0.9205242610150586,0.8901023890784983,0.4737903225806452,3640,4426,411,badstress_00239,8.0,0.07,4.4,0.28,1.1,0.045,0.7,0.55,0.12,6.0,1.2
8477,0.8327238409814793,0.7130248946224995,0.9063186813186813,0.7885223678264799,0.656934306569343,0.921765856384465,0.8903061224489796,0.27607361963190186,3640,4426,411,badstress_00240,8.0,0.07,4.4,0.28,1.3,0.015,0.7,0.55,0.12,6.0,1.2
8477,0.8642208328418073,0.7484912773165338,0.9068681318681319,0.8551739719837325,0.583941605839416,0.9205242610150586,0.8887062690772481,0.379746835443038,3640,4426,411,badstress_00241,8.0,0.07,4.4,0.28,1.3,0.03,0.7,0.55,0.12,6.0,1.2
8477,0.8814439070425858,0.7747458855518433,0.9068681318681319,0.8917758698599186,0.5450121654501217,0.9205242610150586,0.8887637919387525,0.49777777777777776,3640,4426,411,badstress_00242,8.0,0.07,4.4,0.28,1.3,0.045,0.7,0.55,0.12,6.0,1.2
8477,0.8511265777987496,0.7344616931579138,0.9065934065934066,0.8262539539087211,0.6277372262773723,0.9205020920502092,0.8893482490272373,0.33076923076923076,3640,4426,411,badstress_00243,10.0,0.035,3.2,0.14,0.9,0.015,0.7,0.55,0.12,6.0,1.2
8477,0.8795564468561992,0.7743040065554673,0.9068681318681319,0.885901491188432,0.5693430656934306,0.9205242610150586,0.8903269754768393,0.4804928131416838,3640,4426,411,badstress_00244,10.0,0.035,3.2,0.14,0.9,0.03,0.7,0.55,0.12,6.0,1.2
8477,0.892060870591011,0.7950631597552923,0.9068681318681319,0.9143696339810212,0.5206812652068127,0.9205242610150586,0.8892551087673038,0.6294117647058823,3640,4426,411,badstress_00245,10.0,0.035,3.2,0.14,0.9,0.045,0.7,0.55,0.12,6.0,1.2
8477,0.8533679367700837,0.736727675222513,0.9068681318681319,0.8309986443741527,0.6204379562043796,0.9205242610150586,0.8892649903288201,0.33774834437086093,3640,4426,411,badstress_00246,10.0,0.035,3.2,0.14,1.1,0.015,0.7,0.55,0.12,6.0,1.2
8477,0.8806181432110416,0.7753924919994203,0.9068681318681319,0.8886127428829643,0.5620437956204379,0.9205242610150586,0.890020366598778,0.4894067796610169,3640,4426,411,badstress_00247,10.0,0.035,3.2,0.14,1.1,0.03,0.7,0.55,0.12,6.0,1.2
8477,0.8924147693759584,0.7951952429407472,0.9068681318681319,0.9154993221870764,0.5158150851581509,0.9205242610150586,0.888986397542782,0.6366366366366366,3640,4426,411,badstress_00248,10.0,0.035,3.2,0.14,1.1,0.045,0.7,0.55,0.12,6.0,1.2
8477,0.8585584522826472,0.740969044226218,0.9068681318681319,0.8434252146407591,0.5936739659367397,0.9205242610150586,0.8881751130145135,0.3546511627906977,3640,4426,411,badstress_00249,10.0,0.035,3.2,0.14,1.3,0.015,0.7,0.55,0.12,6.0,1.2
8477,0.8820337383508317,0.7754334304158313,0.9068681318681319,0.8931314957071849,0.5425790754257908,0.9205242610150586,0.8889138745221498,0.5022522522522522,3640,4426,411,badstress_00250,10.0,0.035,3.2,0.14,1.3,0.03,0.7,0.55,0.12,6.0,1.2
8477,0.8928866344225551,0.7956258051020252,0.9068681318681319,0.9168549480343425,0.5109489051094891,0.9205242610150586,0.8887428821725799,0.6461538461538462,3640,4426,411,badstress_00251,10.0,0.035,3.2,0.14,1.3,0.045,0.7,0.55,0.12,6.0,1.2
8477,0.844402500884747,0.7255281834034631,0.9065934065934066,0.8131495707184817,0.6301703163017032,0.9205020920502092,0.888203356367226,0.30833333333333335,3640,4426,411,badstress_00252,10.0,0.035,3.2,0.2,0.9,0.015,0.7,0.55,0.12,6.0,1.2
8477,0.8749557626518816,0.7657756809554558,0.9068681318681319,0.876863985539991,0.5717761557177615,0.9205242610150586,0.8895255558102223,0.44507575757575757,3640,4426,411,badstress_00253,10.0,0.035,3.2,0.2,0.9,0.03,0.7,0.55,0.12,6.0,1.2
8477,0.8895835790963784,0.7894134203924607,0.9068681318681319,0.9093990058743787,0.5231143552311436,0.9205242610150586,0.8889134275618374,0.5922865013774105,3640,4426,411,badstress_00254,10.0,0.035,3.2,0.2,0.9,0.045,0.7,0.55,0.12,6.0,1.2
8477,0.847233691164327,0.7284043072872128,0.9068681318681319,0.8190239493899684,0.6228710462287105,0.9205242610150586,0.888262680715511,0.3160493827160494,3640,4426,411,badstress_00255,10.0,0.035,3.2,0.2,1.1,0.015,0.7,0.55,0.12,6.0,1.2
8477,0.8766072903149699,0.7678485900653663,0.9068681318681319,0.8807049254405784,0.5644768856447688,0.9205242610150586,0.8893451973534109,0.4566929133858268,3640,4426,411,badstress_00256,10.0,0.035,3.2,0.2,1.1,0.03,0.7,0.55,0.12,6.0,1.2
8477,0.8901734104046243,0.7900688922973531,0.9068681318681319,0.9109805693628559,0.5182481751824818,0.9205242610150586,0.8886929689221953,0.6016949152542372,3640,4426,411,badstress_00257,10.0,0.035,3.2,0.2,1.1,0.045,0.7,0.55,0.12,6.0,1.2
8477,0.8534859030317329,0.7334102356522245,0.9068681318681319,0.8337098960686851,0.5936739659367397,0.9205242610150586,0.8872325078143785,0.3333333333333333,3640,4426,411,badstress_00258,10.0,0.035,3.2,0.2,1.3,0.015,0.7,0.55,0.12,6.0,1.2
8477,0.8784947505013566,0.7682851429238852,0.9068681318681319,0.886353366470854,0.5425790754257908,0.9205242610150586,0.888159384197419,0.4704641350210971,3640,4426,411,badstress_00259,10.0,0.035,3.2,0.2,1.3,0.03,0.7,0.55,0.12,6.0,1.2
8477,0.8907632417128701,0.7903510734117457,0.9068681318681319,0.9127880704925441,0.5109489051094891,0.9205242610150586,0.8883025505716798,0.6122448979591837,3640,4426,411,badstress_00260,10.0,0.035,3.2,0.2,1.3,0.045,0.7,0.55,0.12,6.0,1.2
8477,0.8422791081750619,0.7227541143931729,0.9065934065934066,0.8090826931766832,0.6301703163017032,0.9205020920502092,0.8877045116509668,0.30186480186480186,3640,4426,411,badstress_00261,10.0,0.035,3.2,0.28,0.9,0.015,0.7,0.55,0.12,6.0,1.2
8477,0.8729503362038457,0.7620873071674059,0.9068681318681319,0.8730230456394035,0.5717761557177615,0.9205242610150586,0.8890934192360792,0.43119266055045874,3640,4426,411,badstress_00262,10.0,0.035,3.2,0.28,0.9,0.03,0.7,0.55,0.12,6.0,1.2
8477,0.8882859502182375,0.7863670704484553,0.9068681318681319,0.9069136918210574,0.5231143552311436,0.9205242610150586,0.8886429045826876,0.5748663101604278,3640,4426,411,badstress_00263,10.0,0.035,3.2,0.28,0.9,0.045,0.7,0.55,0.12,6.0,1.2
8477,0.8453462309779403,0.7258754432613213,0.9068681318681319,0.815408947130592,0.6228710462287105,0.9205242610150586,0.8878228782287823,0.3099273607748184,3640,4426,411,badstress_00264,10.0,0.035,3.2,0.28,1.1,0.015,0.7,0.55,0.12,6.0,1.2
8477,0.8748377963902324,0.7645117646208094,0.9068681318681319,0.877315860822413,0.5644768856447688,0.9205242610150586,0.8889652014652014,0.4435946462715105,3640,4426,411,badstress_00265,10.0,0.035,3.2,0.28,1.1,0.03,0.7,0.55,0.12,6.0,1.2
8477,0.8889937477881326,0.7872641254123939,0.9068681318681319,0.9087211929507456,0.5182481751824818,0.9205242610150586,0.8884470952065385,0.5851648351648352,3640,4426,411,badstress_00266,10.0,0.035,3.2,0.28,1.1,0.045,0.7,0.55,0.12,6.0,1.2
8477,0.8520703078919429,0.7313995616341931,0.9068681318681319,0.8309986443741527,0.5936739659367397,0.9205242610150586,0.8869061972510248,0.3279569892473118,3640,4426,411,badstress_00267,10.0,0.035,3.2,0.28,1.3,0.015,0.7,0.55,0.12,6.0,1.2
8477,0.8771971216232157,0.7657608641929677,0.9068681318681319,0.8838680524175327,0.5425790754257908,0.9205242610150586,0.887880163413527,0.45979381443298967,3640,4426,411,badstress_00268,10.0,0.035,3.2,0.28,1.3,0.03,0.7,0.55,0.12,6.0,1.2
8477,0.8898195116196768,0.7880746657729194,0.9068681318681319,0.9109805693628559,0.5109489051094891,0.9205242610150586,0.8881057268722466,0.5982905982905983,3640,4426,411,badstress_00269,10.0,0.035,3.2,0.28,1.3,0.045,0.7,0.55,0.12,6.0,1.2
8477,0.850064881443907,0.735831200732183,0.9065934065934066,0.8219611387257117,0.6520681265206812,0.9212730318257957,0.8907933398628796,0.33045622688039455,3640,4426,411,badstress_00270,10.0,0.035,3.8,0.14,0.9,0.015,0.7,0.55,0.12,6.0,1.2
8477,0.8786127167630058,0.7738102913945837,0.9068681318681319,0.8831902394938996,0.5790754257907542,0.9205242610150586,0.8908386508659982,0.4731610337972167,3640,4426,411,badstress_00271,10.0,0.035,3.8,0.14,0.9,0.03,0.7,0.55,0.12,6.0,1.2
8477,0.8912351067594668,0.7933976318213238,0.9068681318681319,0.912562132851333,0.5231143552311436,0.9205242610150586,0.88925583443417,0.6160458452722063,3640,4426,411,badstress_00272,10.0,0.035,3.8,0.14,0.9,0.045,0.7,0.55,0.12,6.0,1.2
8477,0.8524242066768905,0.7382711491405382,0.9068681318681319,0.8269317668323543,0.6447688564476886,0.921295004186436,0.8907276709661718,0.3375796178343949,3640,4426,411,badstress_00273,10.0,0.035,3.8,0.14,1.1,0.015,0.7,0.55,0.12,6.0,1.2
8477,0.8796744131178483,0.77488586500602,0.9068681318681319,0.885901491188432,0.5717761557177615,0.9205242610150586,0.8905291846468317,0.48155737704918034,3640,4426,411,badstress_00274,10.0,0.035,3.8,0.14,1.1,0.03,0.7,0.55,0.12,6.0,1.2
8477,0.8915890055444143,0.793517379482008,0.9068681318681319,0.9136918210573881,0.5182481751824818,0.9205242610150586,0.8889865904594416,0.6228070175438597,3640,4426,411,badstress_00275,10.0,0.035,3.8,0.14,1.1,0.045,0.7,0.55,0.12,6.0,1.2
8477,0.8578506547127521,0.7426169198820962,0.9068681318681319,0.8400361500225938,0.6155717761557178,0.921295004186436,0.8894736842105263,0.3543417366946779,3640,4426,411,badstress_00276,10.0,0.035,3.8,0.14,1.3,0.015,0.7,0.55,0.12,6.0,1.2
8477,0.8814439070425858,0.7756600328658791,0.9068681318681319,0.8910980569362856,0.5523114355231143,0.9205242610150586,0.889490302210194,0.49671772428884026,3640,4426,411,badstress_00277,10.0,0.035,3.8,0.14,1.3,0.03,0.7,0.55,0.12,6.0,1.2
8477,0.8921788368526601,0.7942249795972325,0.9068681318681319,0.9152733845458654,0.51338199513382,0.9205242610150586,0.8887670030715226,0.6336336336336337,3640,4426,411,badstress_00278,10.0,0.035,3.8,0.14,1.3,0.045,0.7,0.55,0.12,6.0,1.2
8477,0.8405096142503244,0.7232910870305522,0.9065934065934066,0.8034342521464076,0.6545012165450121,0.9212730318257957,0.889,0.3005586592178771,3640,4426,411,badstress_00279,10.0,0.035,3.8,0.2,0.9,0.015,0.7,0.55,0.12,6.0,1.2
8477,0.8716527073257049,0.76112382550357,0.9068681318681319,0.8696339810212381,0.5815085158150851,0.9205242610150586,0.8895308527848393,0.4237588652482269,3640,4426,411,badstress_00280,10.0,0.035,3.8,0.2,0.9,0.03,0.7,0.55,0.12,6.0,1.2
8477,0.8871062876017459,0.7840353213632495,0.9068681318681319,0.9044283777677361,0.5255474452554745,0.9205242610150586,0.8885682574916759,0.5595854922279793,3640,4426,411,badstress_00281,10.0,0.035,3.8,0.2,0.9,0.045,0.7,0.55,0.12,6.0,1.2
8477,0.8434587707915536,0.726241715405858,0.9068681318681319,0.8095345684591053,0.6472019464720195,0.921295004186436,0.8890818858560794,0.30787037037037035,3640,4426,411,badstress_00282,10.0,0.035,3.8,0.2,1.1,0.015,0.7,0.55,0.12,6.0,1.2
8477,0.8733042349887932,0.7630754947922872,0.9068681318681319,0.8734749209218255,0.5742092457420924,0.9205242610150586,0.889348976305498,0.4338235294117647,3640,4426,411,badstress_00283,10.0,0.035,3.8,0.2,1.1,0.03,0.7,0.55,0.12,6.0,1.2
8477,0.8876961189099918,0.7846280336451867,0.9068681318681319,0.9060099412562133,0.5206812652068127,0.9205242610150586,0.8883473637571998,0.5676392572944297,3640,4426,411,badstress_00284,10.0,0.035,3.8,0.2,1.1,0.045,0.7,0.55,0.12,6.0,1.2
8477,0.850064881443907,0.7312969229997069,0.9068681318681319,0.8251242657026661,0.6155717761557178,0.921295004186436,0.8879163627522489,0.323943661971831,3640,4426,411,badstress_00285,10.0,0.035,3.8,0.2,1.3,0.015,0.7,0.55,0.12,6.0,1.2
8477,0.8756635602217766,0.7642866612872691,0.9068681318681319,0.8800271125169453,0.5523114355231143,0.9205242610150586,0.8882554161915621,0.44861660079051385,3640,4426,411,badstress_00286,10.0,0.035,3.8,0.2,1.3,0.03,0.7,0.55,0.12,6.0,1.2
8477,0.8885218827415359,0.7853947694327199,0.9068681318681319,0.9082693176683235,0.51338199513382,0.9205242610150586,0.8880053015241882,0.5796703296703297,3640,4426,411,badstress_00287,10.0,0.035,3.8,0.2,1.3,0.045,0.7,0.55,0.12,6.0,1.2
8477,0.8370885926624986,0.7189774848716168,0.9065934065934066,0.7968820605512879,0.6545012165450121,0.9212730318257957,0.8881893729539159,0.2911255411255411,3640,4426,411,badstress_00288,10.0,0.035,3.8,0.28,0.9,0.015,0.7,0.55,0.12,6.0,1.2
8477,0.8685855845228265,0.7557663978395349,0.9068681318681319,0.8637596023497515,0.5815085158150851,0.9205242610150586,0.8888630551034643,0.40508474576271186,3640,4426,411,badstress_00289,10.0,0.035,3.8,0.28,0.9,0.03,0.7,0.55,0.12,6.0,1.2
8477,0.8853367936770083,0.7800788104680197,0.9068681318681319,0.9010393131495708,0.5255474452554745,0.9205242610150586,0.8881959910913141,0.5386533665835411,3640,4426,411,badstress_00290,10.0,0.035,3.8,0.28,0.9,0.045,0.7,0.55,0.12,6.0,1.2
8477,0.8402736817270261,0.72212683382539,0.9068681318681319,0.8034342521464076,0.6472019464720195,0.921295004186436,0.8883337496877342,0.29854096520763185,3640,4426,411,badstress_00291,10.0,0.035,3.8,0.28,1.1,0.015,0.7,0.55,0.12,6.0,1.2
8477,0.8704730447092132,0.7580138632221486,0.9068681318681319,0.868052417532761,0.5742092457420924,0.9205242610150586,0.888734674994217,0.4154929577464789,3640,4426,411,badstress_00292,10.0,0.035,3.8,0.28,1.1,0.03,0.7,0.55,0.12,6.0,1.2
8477,0.8860445912469034,0.7808909566156735,0.9068681318681319,0.902846814279259,0.5206812652068127,0.9205242610150586,0.888,0.5473145780051151,3640,4426,411,badstress_00293,10.0,0.035,3.8,0.28,1.1,0.045,0.7,0.55,0.12,6.0,1.2
8477,0.8473516574259762,0.7275878712229629,0.9068681318681319,0.8199276999548125,0.6155717761557178,0.921295004186436,0.8872860635696822,0.31467661691542287,3640,4426,411,badstress_00294,10.0,0.035,3.8,0.28,1.3,0.015,0.7,0.55,0.12,6.0,1.2
8477,0.8733042349887932,0.7599178959559958,0.9068681318681319,0.8755083596927248,0.5523114355231143,0.9205242610150586,0.8877434135166093,0.43155893536121676,3640,4426,411,badstress_00295,10.0,0.035,3.8,0.28,1.3,0.03,0.7,0.55,0.12,6.0,1.2
8477,0.8871062876017459,0.7821342166082773,0.9068681318681319,0.9055580659737912,0.51338199513382,0.9205242610150586,0.8877076411960133,0.5611702127659575,3640,4426,411,badstress_00296,10.0,0.035,3.8,0.28,1.3,0.045,0.7,0.55,0.12,6.0,1.2
8477,0.8495930163973103,0.7357619554365047,0.9065934065934066,0.8206055128784455,0.656934306569343,0.9212730318257957,0.8910696761530913,0.32967032967032966,3640,4426,411,badstress_00297,10.0,0.035,4.4,0.14,0.9,0.015,0.7,0.55,0.12,6.0,1.2
8477,0.8782588179780583,0.7737951039258842,0.9068681318681319,0.8820605512878446,0.583941605839416,0.9205242610150586,0.8911207486875142,0.47058823529411764,3640,4426,411,badstress_00298,10.0,0.035,4.4,0.14,0.9,0.03,0.7,0.55,0.12,6.0,1.2
8477,0.8911171404978177,0.7934815915405604,0.9068681318681319,0.912110257568911,0.5255474452554745,0.9205242610150586,0.8894029521921129,0.6136363636363636,3640,4426,411,badstress_00299,10.0,0.035,4.4,0.14,0.9,0.045,0.7,0.55,0.12,6.0,1.2
8477,0.8519523416302938,0.738196191431049,0.9068681318681319,0.8255761409850881,0.6496350364963503,0.921295004186436,0.8910021945866862,0.33669609079445145,3640,4426,411,badstress_00300,10.0,0.035,4.4,0.14,1.1,0.015,0.7,0.55,0.12,6.0,1.2
8477,0.8793205143329008,0.7748681755980344,0.9068681318681319,0.8847718029823769,0.5766423357664233,0.9205242610150586,0.8908098271155596,0.47878787878787876,3640,4426,411,badstress_00301,10.0,0.035,4.4,0.14,1.1,0.03,0.7,0.55,0.12,6.0,1.2
8477,0.8914710392827652,0.793602716250112,0.9068681318681319,0.9132399457749661,0.5206812652068127,0.9205242610150586,0.8891333040035195,0.6202898550724638,3640,4426,411,badstress_00302,10.0,0.035,4.4,0.14,1.1,0.045,0.7,0.55,0.12,6.0,1.2
8477,0.8574967559278046,0.7424008916223119,0.9068681318681319,0.8391323994577496,0.6180048661800487,0.921295004186436,0.8895808383233533,0.3532684283727399,3640,4426,411,badstress_00303,10.0,0.035,4.4,0.14,1.3,0.015,0.7,0.55,0.12,6.0,1.2
8477,0.8812079745192875,0.7755330056275013,0.9068681318681319,0.8904202440126525,0.5547445255474452,0.9205242610150586,0.8896162528216705,0.4945770065075922,3640,4426,411,badstress_00304,10.0,0.035,4.4,0.14,1.3,0.03,0.7,0.55,0.12,6.0,1.2
8477,0.892060870591011,0.794310081930568,0.9068681318681319,0.9148215092634433,0.5158150851581509,0.9205242610150586,0.8889132821075741,0.6309523809523809,3640,4426,411,badstress_00305,10.0,0.035,4.4,0.14,1.3,0.045,0.7,0.55,0.12,6.0,1.2
8477,0.8387401203255869,0.7214773835052082,0.9065934065934066,0.7995933122458202,0.6593673965936739,0.9212730318257957,0.8894194521236491,0.29585152838427947,3640,4426,411,badstress_00306,10.0,0.035,4.4,0.2,0.9,0.015,0.7,0.55,0.12,6.0,1.2
8477,0.8702371121859148,0.7592994226097748,0.9068681318681319,0.8664708540442838,0.5863746958637469,0.9205242610150586,0.8895847831129668,0.41551724137931034,3640,4426,411,badstress_00307,10.0,0.035,4.4,0.2,0.9,0.03,0.7,0.55,0.12,6.0,1.2
8477,0.8860445912469034,0.7820217876368566,0.9068681318681319,0.9021690013556258,0.5279805352798054,0.9205242610150586,0.8885180240320427,0.5465994962216625,3640,4426,411,badstress_00308,10.0,0.035,4.4,0.2,0.9,0.045,0.7,0.55,0.12,6.0,1.2
8477,0.8418072431284652,0.7245285694413846,0.9068681318681319,0.8059195661997288,0.6520681265206812,0.921295004186436,0.8895261845386534,0.3031674208144796,3640,4426,411,badstress_00309,10.0,0.035,4.4,0.2,1.1,0.015,0.7,0.55,0.12,6.0,1.2
8477,0.8718886398490032,0.7612049274294349,0.9068681318681319,0.8703117939448712,0.5790754257907542,0.9205242610150586,0.8894019856845994,0.425,3640,4426,411,badstress_00310,10.0,0.035,4.4,0.2,1.1,0.03,0.7,0.55,0.12,6.0,1.2
8477,0.8866344225551492,0.7825916267259361,0.9068681318681319,0.903750564844103,0.5231143552311436,0.9205242610150586,0.8882966910948257,0.5541237113402062,3640,4426,411,badstress_00311,10.0,0.035,4.4,0.2,1.1,0.045,0.7,0.55,0.12,6.0,1.2
8477,0.8488852188274154,0.7298151297445427,0.9068681318681319,0.8226389516493448,0.6180048661800487,0.921295004186436,0.8882654305928275,0.31949685534591193,3640,4426,411,badstress_00312,10.0,0.035,4.4,0.2,1.3,0.015,0.7,0.55,0.12,6.0,1.2
8477,0.8746018638669341,0.7626596753393425,0.9068681318681319,0.877767736104835,0.5547445255474452,0.9205242610150586,0.8882030178326474,0.4410058027079304,3640,4426,411,badstress_00313,10.0,0.035,4.4,0.2,1.3,0.03,0.7,0.55,0.12,6.0,1.2
8477,0.8876961189099918,0.7838664142414075,0.9068681318681319,0.9064618165386353,0.5158150851581509,0.9205242610150586,0.8880035413899956,0.5683646112600537,3640,4426,411,badstress_00314,10.0,0.035,4.4,0.2,1.3,0.045,0.7,0.55,0.12,6.0,1.2
8477,0.8349651999528135,0.7167965066937856,0.9065934065934066,0.7923633077270673,0.6593673965936739,0.9212730318257957,0.8885229288066886,0.2858649789029536,3640,4426,411,badstress_00315,10.0,0.035,4.4,0.28,0.9,0.015,0.7,0.55,0.12,6.0,1.2
8477,0.8669340568597381,0.7536419754820884,0.9068681318681319,0.8601446000903751,0.5863746958637469,0.9205242610150586,0.8888629465328041,0.3963815789473684,3640,4426,411,badstress_00316,10.0,0.035,4.4,0.28,0.9,0.03,0.7,0.55,0.12,6.0,1.2
8477,0.8841571310605167,0.777883526166768,0.9068681318681319,0.8985539990962494,0.5279805352798054,0.9205242610150586,0.8881196962929879,0.5254237288135594,3640,4426,411,badstress_00317,10.0,0.035,4.4,0.28,0.9,0.045,0.7,0.55,0.12,6.0,1.2
8477,0.8383862215406394,0.7201793443705315,0.9068681318681319,0.7993673746046092,0.6520681265206812,0.921295004186436,0.8887214267771917,0.29353778751369114,3640,4426,411,badstress_00318,10.0,0.035,4.4,0.28,1.1,0.015,0.7,0.55,0.12,6.0,1.2
8477,0.8689394833077739,0.7560342847893291,0.9068681318681319,0.8646633529145956,0.5790754257907542,0.9205242610150586,0.8887598699489085,0.40683760683760684,3640,4426,411,badstress_00319,10.0,0.035,4.4,0.28,1.1,0.03,0.7,0.55,0.12,6.0,1.2
8477,0.8849828948920608,0.7789245595216238,0.9068681318681319,0.9005874378671487,0.5231143552311436,0.9205242610150586,0.8879483181109379,0.5348258706467661,3640,4426,411,badstress_00320,10.0,0.035,4.4,0.28,1.1,0.045,0.7,0.55,0.12,6.0,1.2
8477,0.8459360622861861,0.7258402655982391,0.9068681318681319,0.8169905106190691,0.6180048661800487,0.921295004186436,0.8875797741777123,0.3097560975609756,3640,4426,411,badstress_00321,10.0,0.035,4.4,0.28,1.3,0.015,0.7,0.55,0.12,6.0,1.2
8477,0.8721245723723016,0.7581444860347135,0.9068681318681319,0.8730230456394035,0.5547445255474452,0.9205242610150586,0.8876636802205375,0.42379182156133827,3640,4426,411,badstress_00322,10.0,0.035,4.4,0.28,1.3,0.03,0.7,0.55,0.12,6.0,1.2
8477,0.8862805237702017,0.7806548516238102,0.9068681318681319,0.903750564844103,0.5158150851581509,0.9205242610150586,0.8877052818464269,0.5506493506493506,3640,4426,411,badstress_00323,10.0,0.035,4.4,0.28,1.3,0.045,0.7,0.55,0.12,6.0,1.2
8477,0.8504187802288545,0.734605668905148,0.9065934065934066,0.823994577496611,0.6374695863746959,0.9207589285714286,0.8899463152757443,0.32955974842767294,3640,4426,411,badstress_00324,10.0,0.05,3.2,0.14,0.9,0.015,0.7,0.55,0.12,6.0,1.2
8477,0.87943848059455,0.7751028946752667,0.9068681318681319,0.8849977406235879,0.5766423357664233,0.9205242610150586,0.8908346599954514,0.4797570850202429,3640,4426,411,badstress_00325,10.0,0.05,3.2,0.14,0.9,0.03,0.7,0.55,0.12,6.0,1.2
8477,0.8922968031143093,0.7967653893660797,0.9068681318681319,0.9141436963398102,0.5279805352798054,0.9205242610150586,0.8898174620628986,0.6308139534883721,3640,4426,411,badstress_00326,10.0,0.05,3.2,0.14,0.9,0.045,0.7,0.55,0.12,6.0,1.2
8477,0.8528960717234871,0.7372021814605306,0.9068681318681319,0.8291911432444645,0.6301703163017032,0.9207810320781032,0.8899127061105723,0.3372395833333333,3640,4426,411,badstress_00327,10.0,0.05,3.2,0.14,1.1,0.015,0.7,0.55,0.12,6.0,1.2
8477,0.8806181432110416,0.7764400767651201,0.9068681318681319,0.8879349299593312,0.5693430656934306,0.9205242610150586,0.8905506458191706,0.4895397489539749,3640,4426,411,badstress_00328,10.0,0.05,3.2,0.14,1.1,0.03,0.7,0.55,0.12,6.0,1.2
8477,0.8926507018992568,0.7969128839570958,0.9068681318681319,0.9152733845458654,0.5231143552311436,0.9205242610150586,0.8895476504172156,0.6379821958456974,3640,4426,411,badstress_00329,10.0,0.05,3.2,0.14,1.1,0.045,0.7,0.55,0.12,6.0,1.2
8477,0.8578506547127521,0.7401369250046187,0.9068681318681319,0.841843651152282,0.5961070559610706,0.9207810320781032,0.8882002383790226,0.351506456241033,3640,4426,411,badstress_00330,10.0,0.05,3.2,0.14,1.3,0.015,0.7,0.55,0.12,6.0,1.2
8477,0.8816798395658841,0.7747004351967451,0.9068681318681319,0.8924536827835517,0.5425790754257908,0.9205242610150586,0.8888388838883888,0.4988814317673378,3640,4426,411,badstress_00331,10.0,0.05,3.2,0.14,1.3,0.03,0.7,0.55,0.12,6.0,1.2
8477,0.8927686681609059,0.7953270223661663,0.9068681318681319,0.9166290103931315,0.5109489051094891,0.9205242610150586,0.8887185104052574,0.6441717791411042,3640,4426,411,badstress_00332,10.0,0.05,3.2,0.14,1.3,0.045,0.7,0.55,0.12,6.0,1.2
8477,0.8413353780818685,0.7240444784277358,0.9065934065934066,0.8052417532760958,0.6520681265206812,0.9207589285714286,0.8894434739206388,0.30248306997742663,3640,4426,411,badstress_00333,10.0,0.05,3.2,0.2,0.9,0.015,0.7,0.55,0.12,6.0,1.2
8477,0.8740120325586882,0.7667449272063793,0.9068681318681319,0.8732489832806145,0.5912408759124088,0.9205242610150586,0.890758239225628,0.44021739130434784,3640,4426,411,badstress_00334,10.0,0.05,3.2,0.2,0.9,0.03,0.7,0.55,0.12,6.0,1.2
8477,0.8899374778813259,0.7931941553539753,0.9068681318681319,0.9082693176683235,0.5425790754257908,0.9205242610150586,0.8903654485049833,0.5930851063829787,3640,4426,411,badstress_00335,10.0,0.05,3.2,0.2,0.9,0.045,0.7,0.55,0.12,6.0,1.2
8477,0.8448743659313437,0.7277960143090426,0.9068681318681319,0.8124717577948486,0.6447688564476886,0.9207810320781032,0.8896585848589807,0.31176470588235294,3640,4426,411,badstress_00336,10.0,0.05,3.2,0.2,1.1,0.015,0.7,0.55,0.12,6.0,1.2
8477,0.875899492745075,0.7692580146870008,0.9068681318681319,0.877541798463624,0.583941605839416,0.9205242610150586,0.8906214171061683,0.4528301886792453,3640,4426,411,badstress_00337,10.0,0.05,3.2,0.2,1.1,0.03,0.7,0.55,0.12,6.0,1.2
8477,0.8905273091895718,0.7938856105637582,0.9068681318681319,0.9098508811568007,0.537712895377129,0.9205242610150586,0.8901414677276747,0.6021798365122616,3640,4426,411,badstress_00338,10.0,0.05,3.2,0.2,1.1,0.045,0.7,0.55,0.12,6.0,1.2
8477,0.8514804765836971,0.7319987023012132,0.9068681318681319,0.8287392679620424,0.6058394160583942,0.9207810320781032,0.887920600338901,0.3272010512483574,3640,4426,411,badstress_00339,10.0,0.05,3.2,0.2,1.3,0.015,0.7,0.55,0.12,6.0,1.2
8477,0.8780228854547599,0.7688086744726976,0.9068681318681319,0.8845458653411659,0.5523114355231143,0.9205242610150586,0.8887627695800226,0.4670781893004115,3640,4426,411,badstress_00340,10.0,0.05,3.2,0.2,1.3,0.03,0.7,0.55,0.12,6.0,1.2
8477,0.8908812079745193,0.7921585551689171,0.9068681318681319,0.912110257568911,0.5206812652068127,0.9205242610150586,0.8890112310063862,0.6114285714285714,3640,4426,411,badstress_00341,10.0,0.05,3.2,0.2,1.3,0.045,0.7,0.55,0.12,6.0,1.2
8477,0.8387401203255869,0.7207400453229095,0.9065934065934066,0.8002711251694532,0.6520681265206812,0.9207589285714286,0.8888331242158093,0.29515418502202645,3640,4426,411,badstress_00342,10.0,0.05,3.2,0.28,0.9,0.015,0.7,0.55,0.12,6.0,1.2
8477,0.8715347410640557,0.7622596940843698,0.9068681318681319,0.868504292815183,0.5912408759124088,0.9205242610150586,0.890226956924502,0.42408376963350786,3640,4426,411,badstress_00343,10.0,0.05,3.2,0.28,0.9,0.03,0.7,0.55,0.12,6.0,1.2
8477,0.8882859502182375,0.7893170418566392,0.9068681318681319,0.9051061906913692,0.5425790754257908,0.9205242610150586,0.8900244390135525,0.5717948717948718,3640,4426,411,badstress_00344,10.0,0.05,3.2,0.28,0.9,0.045,0.7,0.55,0.12,6.0,1.2
8477,0.8425150406983603,0.7247006005289233,0.9068681318681319,0.807953004970628,0.6447688564476886,0.9207810320781032,0.8891098955743412,0.3045977011494253,3640,4426,411,badstress_00345,10.0,0.05,3.2,0.28,1.1,0.015,0.7,0.55,0.12,6.0,1.2
8477,0.8736581337737407,0.7650867112407682,0.9068681318681319,0.8732489832806145,0.583941605839416,0.9205242610150586,0.8901427913403961,0.4371584699453552,3640,4426,411,badstress_00346,10.0,0.05,3.2,0.28,1.1,0.03,0.7,0.55,0.12,6.0,1.2
8477,0.8889937477881326,0.7902398442428034,0.9068681318681319,0.9069136918210574,0.537712895377129,0.9205242610150586,0.8898248725338063,0.5815789473684211,3640,4426,411,badstress_00347,10.0,0.05,3.2,0.28,1.1,0.045,0.7,0.55,0.12,6.0,1.2
8477,0.8497109826589595,0.7295399685287922,0.9068681318681319,0.8253502033438771,0.6058394160583942,0.9207810320781032,0.8875121477162293,0.32087628865979384,3640,4426,411,badstress_00348,10.0,0.05,3.2,0.28,1.3,0.015,0.7,0.55,0.12,6.0,1.2
8477,0.8763713577916716,0.7656267023061671,0.9068681318681319,0.8813827383642114,0.5523114355231143,0.9205242610150586,0.8884081074925985,0.454,3640,4426,411,badstress_00349,10.0,0.05,3.2,0.28,1.3,0.03,0.7,0.55,0.12,6.0,1.2
8477,0.8897015453580276,0.7893177939321557,0.9068681318681319,0.9098508811568007,0.5206812652068127,0.9205242610150586,0.8887662767600971,0.5944444444444444,3640,4426,411,badstress_00350,10.0,0.05,3.2,0.28,1.3,0.045,0.7,0.55,0.12,6.0,1.2
8477,0.847941488734222,0.7339098058315936,0.9065934065934066,0.8169905106190691,0.6618004866180048,0.9215302987992181,0.8912989894010352,0.32419547079856975,3640,4426,411,badstress_00351,10.0,0.05,3.8,0.14,0.9,0.015,0.7,0.55,0.12,6.0,1.2
8477,0.8776689866698124,0.7729836042839612,0.9068681318681319,0.8807049254405784,0.5863746958637469,0.9205242610150586,0.8911751257430269,0.4661508704061896,3640,4426,411,badstress_00352,10.0,0.05,3.8,0.14,0.9,0.03,0.7,0.55,0.12,6.0,1.2
8477,0.8908812079745193,0.7936463193623761,0.9068681318681319,0.9112065070040669,0.5304136253041363,0.9205242610150586,0.8896977718949923,0.6089385474860335,3640,4426,411,badstress_00353,10.0,0.05,3.8,0.14,0.9,0.045,0.7,0.55,0.12,6.0,1.2
8477,0.850772679013802,0.7369559646388649,0.9068681318681319,0.8228648892905558,0.6545012165450121,0.9215522054718035,0.8913362701908958,0.33250927070457353,3640,4426,411,badstress_00354,10.0,0.05,3.8,0.14,1.1,0.015,0.7,0.55,0.12,6.0,1.2
8477,0.8789666155479533,0.7745081910610717,0.9068681318681319,0.8838680524175327,0.5790754257907542,0.9205242610150586,0.8909132316101116,0.476,3640,4426,411,badstress_00355,10.0,0.05,3.8,0.14,1.1,0.03,0.7,0.55,0.12,6.0,1.2
8477,0.891353073021116,0.7940593291217487,0.9068681318681319,0.912562132851333,0.5255474452554745,0.9205242610150586,0.8894516626293768,0.6171428571428571,3640,4426,411,badstress_00356,10.0,0.05,3.8,0.14,1.1,0.045,0.7,0.55,0.12,6.0,1.2
8477,0.8560811607880147,0.7401134526124707,0.9068681318681319,0.8364211477632173,0.6180048661800487,0.9215522054718035,0.889476213358962,0.34652114597544337,3640,4426,411,badstress_00357,10.0,0.05,3.8,0.14,1.3,0.015,0.7,0.55,0.12,6.0,1.2
8477,0.8805001769493924,0.7737335220693001,0.9068681318681319,0.8892905558065973,0.5523114355231143,0.9205242610150586,0.8892905558065973,0.4881720430107527,3640,4426,411,badstress_00358,10.0,0.05,3.8,0.14,1.3,0.03,0.7,0.55,0.12,6.0,1.2
8477,0.8917069718060635,0.7930508653695435,0.9068681318681319,0.9143696339810212,0.51338199513382,0.9205242610150586,0.88866930171278,0.6261127596439169,3640,4426,411,badstress_00359,10.0,0.05,3.8,0.14,1.3,0.045,0.7,0.55,0.12,6.0,1.2
8477,0.8348472336911643,0.7188240963120571,0.9065934065934066,0.7903298689561681,0.6788321167883211,0.9215302987992181,0.8900763358778626,0.2888198757763975,3640,4426,411,badstress_00360,10.0,0.05,3.8,0.2,0.9,0.015,0.7,0.55,0.12,6.0,1.2
8477,0.8692933820927214,0.7596493499891227,0.9068681318681319,0.8633077270673294,0.6009732360097324,0.9205242610150586,0.890468422279189,0.4116666666666667,3640,4426,411,badstress_00361,10.0,0.05,3.8,0.2,0.9,0.03,0.7,0.55,0.12,6.0,1.2
8477,0.8865164562935001,0.7856484424850808,0.9068681318681319,0.9014911884319927,0.5450121654501217,0.9205242610150586,0.8898305084745762,0.5503685503685504,3640,4426,411,badstress_00362,10.0,0.05,3.8,0.2,0.9,0.045,0.7,0.55,0.12,6.0,1.2
8477,0.838858086587236,0.7229818490042094,0.9068681318681319,0.798463624039765,0.6715328467153284,0.9215522054718035,0.890400604686319,0.2980561555075594,3640,4426,411,badstress_00363,10.0,0.05,3.8,0.2,1.1,0.015,0.7,0.55,0.12,6.0,1.2
8477,0.8714167748024065,0.7623827830381238,0.9068681318681319,0.868052417532761,0.5936739659367397,0.9205242610150586,0.8903823870220162,0.4236111111111111,3640,4426,411,badstress_00364,10.0,0.05,3.8,0.2,1.1,0.03,0.7,0.55,0.12,6.0,1.2
8477,0.8872242538633951,0.7865208922558388,0.9068681318681319,0.903298689561681,0.5401459854014599,0.9205242610150586,0.8896306186025812,0.5591939546599496,3640,4426,411,badstress_00365,10.0,0.05,3.8,0.2,1.1,0.045,0.7,0.55,0.12,6.0,1.2
8477,0.8459360622861861,0.7272894229248309,0.9068681318681319,0.815860822413014,0.6301703163017032,0.9215522054718035,0.8885334645669292,0.31167268351383876,3640,4426,411,badstress_00366,10.0,0.05,3.8,0.2,1.3,0.015,0.7,0.55,0.12,6.0,1.2
8477,0.8741299988203374,0.7628496030070764,0.9068681318681319,0.8761861726163579,0.5620437956204379,0.9205242610150586,0.888634280476627,0.43833017077798864,3640,4426,411,badstress_00367,10.0,0.05,3.8,0.2,1.3,0.03,0.7,0.55,0.12,6.0,1.2
8477,0.8879320514332901,0.785548628549361,0.9068681318681319,0.9062358788974243,0.5231143552311436,0.9205242610150586,0.8885688967656181,0.5702917771883289,3640,4426,411,badstress_00368,10.0,0.05,3.8,0.2,1.3,0.045,0.7,0.55,0.12,6.0,1.2
8477,0.8304824820101451,0.713565723370856,0.9065934065934066,0.7819701762313601,0.6788321167883211,0.9215302987992181,0.8890315951708194,0.2781655034895314,3640,4426,411,badstress_00369,10.0,0.05,3.8,0.28,0.9,0.015,0.7,0.55,0.12,6.0,1.2
8477,0.8652825291966497,0.7528838697109098,0.9068681318681319,0.8556258472661545,0.6009732360097324,0.9205242610150586,0.8895936105238431,0.38958990536277605,3640,4426,411,badstress_00370,10.0,0.05,3.8,0.28,0.9,0.03,0.7,0.55,0.12,6.0,1.2
8477,0.8840391647988676,0.7802093394242481,0.9068681318681319,0.8967464979665613,0.5450121654501217,0.9205242610150586,0.8893121218911046,0.5233644859813084,3640,4426,411,badstress_00371,10.0,0.05,3.8,0.28,0.9,0.045,0.7,0.55,0.12,6.0,1.2
8477,0.8347292674295151,0.7178549686271348,0.9068681318681319,0.7905558065973791,0.6715328467153284,0.9215522054718035,0.889425521098119,0.28720083246618106,3640,4426,411,badstress_00372,10.0,0.05,3.8,0.28,1.1,0.015,0.7,0.55,0.12,6.0,1.2
8477,0.8676418544296332,0.7558343315109718,0.9068681318681319,0.8608224130140081,0.5936739659367397,0.9205242610150586,0.8895633901470932,0.40131578947368424,3640,4426,411,badstress_00373,10.0,0.05,3.8,0.28,1.1,0.03,0.7,0.55,0.12,6.0,1.2
8477,0.8848649286304117,0.7812698795154297,0.9068681318681319,0.8987799367374605,0.5401459854014599,0.9205242610150586,0.8891372373714796,0.5323741007194245,3640,4426,411,badstress_00374,10.0,0.05,3.8,0.28,1.1,0.045,0.7,0.55,0.12,6.0,1.2
8477,0.8425150406983603,0.7228042464471623,0.9068681318681319,0.8093086308178943,0.6301703163017032,0.9215522054718035,0.8877323420074349,0.30116279069767443,3640,4426,411,badstress_00375,10.0,0.05,3.8,0.28,1.3,0.015,0.7,0.55,0.12,6.0,1.2
8477,0.871062876017459,0.7573163146833718,0.9068681318681319,0.8703117939448712,0.5620437956204379,0.9205242610150586,0.8879668049792531,0.4177215189873418,3640,4426,411,badstress_00376,10.0,0.05,3.8,0.28,1.3,0.03,0.7,0.55,0.12,6.0,1.2
8477,0.8860445912469034,0.781269818044338,0.9068681318681319,0.9026208766380479,0.5231143552311436,0.9205242610150586,0.888172521120498,0.5470737913486005,3640,4426,411,badstress_00377,10.0,0.05,3.8,0.28,1.3,0.045,0.7,0.55,0.12,6.0,1.2
8477,0.8473516574259762,0.7336779679453546,0.9063186813186813,0.815634884771803,0.6666666666666666,0.9215083798882682,0.8915781674487527,0.3231132075471698,3640,4426,411,badstress_00378,10.0,0.05,4.4,0.14,0.9,0.015,0.7,0.55,0.12,6.0,1.2
8477,0.8773150878848649,0.7729694501731551,0.9068681318681319,0.8795752372345232,0.5912408759124088,0.9205242610150586,0.891458667277307,0.4637404580152672,3640,4426,411,badstress_00379,10.0,0.05,4.4,0.14,0.9,0.03,0.7,0.55,0.12,6.0,1.2
8477,0.8907632417128701,0.7937271114518621,0.9068681318681319,0.9107546317216448,0.5328467153284672,0.9205242610150586,0.8898454746136866,0.6066481994459834,3640,4426,411,badstress_00380,10.0,0.05,4.4,0.14,0.9,0.045,0.7,0.55,0.12,6.0,1.2
8477,0.8501828477055562,0.7367122601117546,0.9065934065934066,0.8215092634432897,0.6593673965936739,0.9215302987992181,0.8916135360470819,0.3312958435207824,3640,4426,411,badstress_00381,10.0,0.05,4.4,0.14,1.1,0.015,0.7,0.55,0.12,6.0,1.2
8477,0.8786127167630058,0.7744892129148228,0.9068681318681319,0.8827383642114777,0.583941605839416,0.9205242610150586,0.8911952554744526,0.47337278106508873,3640,4426,411,badstress_00382,10.0,0.05,4.4,0.14,1.1,0.03,0.7,0.55,0.12,6.0,1.2
8477,0.8912351067594668,0.7941406548076043,0.9068681318681319,0.912110257568911,0.5279805352798054,0.9205242610150586,0.8895989422653151,0.6147308781869688,3640,4426,411,badstress_00383,10.0,0.05,4.4,0.14,1.1,0.045,0.7,0.55,0.12,6.0,1.2
8477,0.8557272620030671,0.7399062671795056,0.9068681318681319,0.8355173971983733,0.6204379562043796,0.9215522054718035,0.8895838344960308,0.34552845528455284,3640,4426,411,badstress_00384,10.0,0.05,4.4,0.14,1.3,0.015,0.7,0.55,0.12,6.0,1.2
8477,0.8802642444260942,0.7736138183155283,0.9068681318681319,0.8886127428829643,0.5547445255474452,0.9205242610150586,0.8894165535956581,0.4861407249466951,3640,4426,411,badstress_00385,10.0,0.05,4.4,0.14,1.3,0.03,0.7,0.55,0.12,6.0,1.2
8477,0.8915890055444143,0.793139221472614,0.9068681318681319,0.9139177586985991,0.5158150851581509,0.9205242610150586,0.8888156449132059,0.6235294117647059,3640,4426,411,badstress_00386,10.0,0.05,4.4,0.14,1.3,0.045,0.7,0.55,0.12,6.0,1.2
8477,0.832487908458181,0.7169284831744606,0.9063186813186813,0.7851333032083145,0.6885644768856448,0.921765856384465,0.8905689390056382,0.28413654618473894,3640,4426,411,badstress_00387,10.0,0.05,4.4,0.2,0.9,0.015,0.7,0.55,0.12,6.0,1.2
8477,0.8678777869529315,0.7581989759319584,0.9068681318681319,0.859918662449164,0.6082725060827251,0.9205242610150586,0.8907091036742335,0.4045307443365696,3640,4426,411,badstress_00388,10.0,0.05,4.4,0.2,0.9,0.03,0.7,0.55,0.12,6.0,1.2
8477,0.8854547599386575,0.7840089869713559,0.9068681318681319,0.8990058743786715,0.5498783454987834,0.9205242610150586,0.8899575039141132,0.5380952380952381,3640,4426,411,badstress_00389,10.0,0.05,4.4,0.2,0.9,0.045,0.7,0.55,0.12,6.0,1.2
8477,0.8366167276159019,0.7211572150909674,0.9065934065934066,0.7934929959331225,0.681265206812652,0.9217877094972067,0.8909183155758498,0.2931937172774869,3640,4426,411,badstress_00390,10.0,0.05,4.4,0.2,1.1,0.015,0.7,0.55,0.12,6.0,1.2
8477,0.8700011796626165,0.760879292403298,0.9068681318681319,0.8646633529145956,0.6009732360097324,0.9205242610150586,0.8906213637421457,0.4158249158249158,3640,4426,411,badstress_00391,10.0,0.05,4.4,0.2,1.1,0.03,0.7,0.55,0.12,6.0,1.2
8477,0.8861625575085526,0.7848573671095176,0.9068681318681319,0.9008133755083597,0.5450121654501217,0.9205242610150586,0.8897567507252845,0.5463414634146342,3640,4426,411,badstress_00392,10.0,0.05,4.4,0.2,1.1,0.045,0.7,0.55,0.12,6.0,1.2
8477,0.844402500884747,0.7257075551746951,0.9068681318681319,0.8124717577948486,0.635036496350365,0.9215522054718035,0.8889987639060568,0.3070588235294118,3640,4426,411,badstress_00393,10.0,0.05,4.4,0.2,1.3,0.015,0.7,0.55,0.12,6.0,1.2
8477,0.8730683024654948,0.7616074570404847,0.9068681318681319,0.8737008585630366,0.5669099756690997,0.9205242610150586,0.8887612043208458,0.43148148148148147,3640,4426,411,badstress_00394,10.0,0.05,4.4,0.2,1.3,0.03,0.7,0.55,0.12,6.0,1.2
8477,0.8871062876017459,0.7844097054990394,0.9068681318681319,0.9042024401265251,0.5279805352798054,0.9205242610150586,0.8887408394403731,0.5592783505154639,3640,4426,411,badstress_00395,10.0,0.05,4.4,0.2,1.3,0.045,0.7,0.55,0.12,6.0,1.2
8477,0.8276512917305651,0.711209644275603,0.9063186813186813,0.7758698599186624,0.6885644768856448,0.921765856384465,0.8894068894068894,0.2729026036644166,3640,4426,411,badstress_00396,10.0,0.05,4.4,0.28,0.9,0.015,0.7,0.55,0.12,6.0,1.2
8477,0.8635130352719123,0.7509753808511492,0.9068681318681319,0.8515589697243561,0.6082725060827251,0.9205242610150586,0.8897544853635505,0.3816793893129771,3640,4426,411,badstress_00397,10.0,0.05,4.4,0.28,0.9,0.03,0.7,0.55,0.12,6.0,1.2
8477,0.8827415359207267,0.7781708646264273,0.9068681318681319,0.8938093086308179,0.5498783454987834,0.9205242610150586,0.8893884892086331,0.510158013544018,3640,4426,411,badstress_00398,10.0,0.05,4.4,0.28,0.9,0.045,0.7,0.55,0.12,6.0,1.2
8477,0.8322519759348826,0.7158352330589116,0.9065934065934066,0.7851333032083145,0.681265206812652,0.9217877094972067,0.8898847631241997,0.28225806451612906,3640,4426,411,badstress_00399,10.0,0.05,4.4,0.28,1.1,0.015,0.7,0.55,0.12,6.0,1.2
8477,0.8661082930281939,0.7542493212401218,0.9068681318681319,0.8572074107546317,0.6009732360097324,0.9205242610150586,0.8897748592870544,0.3939393939393939,3640,4426,411,badstress_00400,10.0,0.05,4.4,0.28,1.1,0.03,0.7,0.55,0.12,6.0,1.2
8477,0.8838032322755692,0.7797030167925373,0.9068681318681319,0.8962946226841392,0.5450121654501217,0.9205242610150586,0.8892624971979377,0.5209302325581395,3640,4426,411,badstress_00401,10.0,0.05,4.4,0.28,1.1,0.045,0.7,0.55,0.12,6.0,1.2
8477,0.8407455467736228,0.7209875674373761,0.9068681318681319,0.8054676909173069,0.635036496350365,0.9215522054718035,0.888141504733433,0.29625425652667425,3640,4426,411,badstress_00402,10.0,0.05,4.4,0.28,1.3,0.015,0.7,0.55,0.12,6.0,1.2
8477,0.8698832134009673,0.7559473578399509,0.9068681318681319,0.8676005422503389,0.5669099756690997,0.9205242610150586,0.8880666049953746,0.4109347442680776,3640,4426,411,badstress_00403,10.0,0.05,4.4,0.28,1.3,0.03,0.7,0.55,0.12,6.0,1.2
8477,0.8852188274153592,0.7801947942934612,0.9068681318681319,0.9005874378671487,0.5279805352798054,0.9205242610150586,0.8883441051927792,0.5371287128712872,3640,4426,411,badstress_00404,10.0,0.05,4.4,0.28,1.3,0.045,0.7,0.55,0.12,6.0,1.2
8477,0.8498289489206087,0.7336982696872608,0.9065934065934066,0.8228648892905558,0.6374695863746959,0.9207589285714286,0.8900293255131965,0.32709113607990015,3640,4426,411,badstress_00405,10.0,0.07,3.2,0.14,0.9,0.015,0.7,0.55,0.12,6.0,1.2
8477,0.8792025480712516,0.7746338719095415,0.9068681318681319,0.8845458653411659,0.5766423357664233,0.9205242610150586,0.8907849829351536,0.4778225806451613,3640,4426,411,badstress_00406,10.0,0.07,3.2,0.14,0.9,0.03,0.7,0.55,0.12,6.0,1.2
8477,0.8922968031143093,0.7967653893660797,0.9068681318681319,0.9141436963398102,0.5279805352798054,0.9205242610150586,0.8898174620628986,0.6308139534883721,3640,4426,411,badstress_00407,10.0,0.07,3.2,0.14,0.9,0.045,0.7,0.55,0.12,6.0,1.2
8477,0.8524242066768905,0.7364390890077162,0.9068681318681319,0.8282873926796204,0.6301703163017032,0.9207810320781032,0.8900218499635834,0.3350582147477361,3640,4426,411,badstress_00408,10.0,0.07,3.2,0.14,1.1,0.015,0.7,0.55,0.12,6.0,1.2
8477,0.8803822106877434,0.7759623905125729,0.9068681318681319,0.8874830546769091,0.5693430656934306,0.9205242610150586,0.8905010201768306,0.4875,3640,4426,411,badstress_00409,10.0,0.07,3.2,0.14,1.1,0.03,0.7,0.55,0.12,6.0,1.2
8477,0.8926507018992568,0.7969128839570958,0.9068681318681319,0.9152733845458654,0.5231143552311436,0.9205242610150586,0.8895476504172156,0.6379821958456974,3640,4426,411,badstress_00410,10.0,0.07,3.2,0.14,1.1,0.045,0.7,0.55,0.12,6.0,1.2
8477,0.8573787896661554,0.739332400160544,0.9068681318681319,0.8409399005874378,0.5961070559610706,0.9207810320781032,0.8883054892601432,0.349002849002849,3640,4426,411,badstress_00411,10.0,0.07,3.2,0.14,1.3,0.015,0.7,0.55,0.12,6.0,1.2
8477,0.8814439070425858,0.7742140811911989,0.9068681318681319,0.8920018075011297,0.5425790754257908,0.9205242610150586,0.8887888338586223,0.49665924276169265,3640,4426,411,badstress_00412,10.0,0.07,3.2,0.14,1.3,0.03,0.7,0.55,0.12,6.0,1.2
8477,0.8927686681609059,0.7953270223661663,0.9068681318681319,0.9166290103931315,0.5109489051094891,0.9205242610150586,0.8887185104052574,0.6441717791411042,3640,4426,411,badstress_00413,10.0,0.07,3.2,0.14,1.3,0.045,0.7,0.55,0.12,6.0,1.2
8477,0.8394479178954819,0.7219979929738524,0.9065934065934066,0.8011748757342974,0.656934306569343,0.9207589285714286,0.8900602409638554,0.297029702970297,3640,4426,411,badstress_00414,10.0,0.07,3.2,0.2,0.9,0.015,0.7,0.55,0.12,6.0,1.2
8477,0.873186268727144,0.7655662239736521,0.9068681318681319,0.8714414821509263,0.5936739659367397,0.9205242610150586,0.8907621247113164,0.43493761140819964,3640,4426,411,badstress_00415,10.0,0.07,3.2,0.2,0.9,0.03,0.7,0.55,0.12,6.0,1.2
8477,0.8898195116196768,0.7932721155403103,0.9068681318681319,0.9078174423859015,0.5450121654501217,0.9205242610150586,0.8905141843971631,0.5910290237467019,3640,4426,411,badstress_00416,10.0,0.07,3.2,0.2,0.9,0.045,0.7,0.55,0.12,6.0,1.2
8477,0.8432228382682553,0.7259821675049452,0.9068681318681319,0.8088567555354722,0.6496350364963503,0.9207810320781032,0.890325789604576,0.3065442020665901,3640,4426,411,badstress_00417,10.0,0.07,3.2,0.2,1.1,0.015,0.7,0.55,0.12,6.0,1.2
8477,0.8750737289135307,0.7680434914627231,0.9068681318681319,0.8757342973339358,0.5863746958637469,0.9205242610150586,0.890625,0.44712430426716143,3640,4426,411,badstress_00418,10.0,0.07,3.2,0.2,1.1,0.03,0.7,0.55,0.12,6.0,1.2
8477,0.8904093429279226,0.7939633404748371,0.9068681318681319,0.9093990058743787,0.5401459854014599,0.9205242610150586,0.8902897589028976,0.6,3640,4426,411,badstress_00419,10.0,0.07,3.2,0.2,1.1,0.045,0.7,0.55,0.12,6.0,1.2
8477,0.8499469151822578,0.7299258712185438,0.9068681318681319,0.8255761409850881,0.6082725060827251,0.9207810320781032,0.888402625820569,0.3209242618741977,3640,4426,411,badstress_00420,10.0,0.07,3.2,0.2,1.3,0.015,0.7,0.55,0.12,6.0,1.2
8477,0.8771971216232157,0.7672078840247513,0.9068681318681319,0.8829643018526887,0.5523114355231143,0.9205242610150586,0.8885857207821737,0.460446247464503,3640,4426,411,badstress_00421,10.0,0.07,3.2,0.2,1.3,0.03,0.7,0.55,0.12,6.0,1.2
8477,0.890645275451221,0.7915853770254456,0.9068681318681319,0.9116583822864889,0.5206812652068127,0.9205242610150586,0.8889623265036352,0.6079545454545454,3640,4426,411,badstress_00422,10.0,0.07,3.2,0.2,1.3,0.045,0.7,0.55,0.12,6.0,1.2
8477,0.8357909637843577,0.7169895434882457,0.9065934065934066,0.7941708088567555,0.656934306569343,0.9207589285714286,0.8907754688291941,0.28511087645195354,3640,4426,411,badstress_00423,10.0,0.07,3.2,0.28,0.9,0.015,0.7,0.55,0.12,6.0,1.2
8477,0.8700011796626165,0.7596311401023521,0.9068681318681319,0.8653411658382286,0.5936739659367397,0.9205242610150586,0.8904905835852127,0.4135593220338983,3640,4426,411,badstress_00424,10.0,0.07,3.2,0.28,0.9,0.03,0.7,0.55,0.12,6.0,1.2
8477,0.8875781526483426,0.7880508530444637,0.9068681318681319,0.903524627202892,0.5450121654501217,0.9205242610150586,0.8900511907411529,0.5628140703517588,3640,4426,411,badstress_00425,10.0,0.07,3.2,0.28,0.9,0.045,0.7,0.55,0.12,6.0,1.2
8477,0.8398018166804294,0.7212388131989079,0.9068681318681319,0.8023045639403524,0.6496350364963503,0.9207810320781032,0.890644594933534,0.2950276243093923,3640,4426,411,badstress_00426,10.0,0.07,3.2,0.28,1.1,0.015,0.7,0.55,0.12,6.0,1.2
8477,0.8721245723723016,0.7623733787148225,0.9068681318681319,0.8700858563036602,0.5863746958637469,0.9205242610150586,0.8904046242774567,0.42579505300353354,3640,4426,411,badstress_00427,10.0,0.07,3.2,0.28,1.1,0.03,0.7,0.55,0.12,6.0,1.2
8477,0.8882859502182375,0.7889549024317978,0.9068681318681319,0.9053321283325803,0.5401459854014599,0.9205242610150586,0.8898512103042416,0.5721649484536082,3640,4426,411,badstress_00428,10.0,0.07,3.2,0.28,1.1,0.045,0.7,0.55,0.12,6.0,1.2
8477,0.847233691164327,0.7259221553352408,0.9068681318681319,0.8203795752372345,0.6082725060827251,0.9207810320781032,0.8886441507586882,0.31017369727047145,3640,4426,411,badstress_00429,10.0,0.07,3.2,0.28,1.3,0.015,0.7,0.55,0.12,6.0,1.2
8477,0.8748377963902324,0.7624538435261793,0.9068681318681319,0.8784455490284682,0.5523114355231143,0.9205242610150586,0.8884826325411335,0.4407766990291262,3640,4426,411,badstress_00430,10.0,0.07,3.2,0.28,1.3,0.03,0.7,0.55,0.12,6.0,1.2
8477,0.8888757815264834,0.787365909089798,0.9068681318681319,0.9082693176683235,0.5206812652068127,0.9205242610150586,0.8885941644562334,0.5831062670299727,3640,4426,411,badstress_00431,10.0,0.07,3.2,0.28,1.3,0.045,0.7,0.55,0.12,6.0,1.2
8477,0.8468797923793795,0.7322951758373769,0.906043956043956,0.815408947130592,0.6618004866180048,0.9214864487286951,0.8915513833992095,0.32,3640,4426,411,badstress_00432,10.0,0.07,3.8,0.14,0.9,0.015,0.7,0.55,0.12,6.0,1.2
8477,0.8774330541465141,0.7725268569939269,0.9068681318681319,0.8802530501581564,0.5863746958637469,0.9205242610150586,0.8911253430924062,0.464354527938343,3640,4426,411,badstress_00433,10.0,0.07,3.8,0.14,0.9,0.03,0.7,0.55,0.12,6.0,1.2
8477,0.8908812079745193,0.7936463193623761,0.9068681318681319,0.9112065070040669,0.5304136253041363,0.9205242610150586,0.8896977718949923,0.6089385474860335,3640,4426,411,badstress_00434,10.0,0.07,3.8,0.14,0.9,0.045,0.7,0.55,0.12,6.0,1.2
8477,0.8498289489206087,0.7354585961851572,0.9063186813186813,0.8215092634432897,0.6545012165450121,0.9215083798882682,0.8916135360470819,0.32844932844932845,3640,4426,411,badstress_00435,10.0,0.07,3.8,0.14,1.1,0.015,0.7,0.55,0.12,6.0,1.2
8477,0.878730683024655,0.7740425167368139,0.9068681318681319,0.8834161771351107,0.5790754257907542,0.9205242610150586,0.8908635224424698,0.47410358565737054,3640,4426,411,badstress_00436,10.0,0.07,3.8,0.14,1.1,0.03,0.7,0.55,0.12,6.0,1.2
8477,0.891353073021116,0.7940593291217487,0.9068681318681319,0.912562132851333,0.5255474452554745,0.9205242610150586,0.8894516626293768,0.6171428571428571,3640,4426,411,badstress_00437,10.0,0.07,3.8,0.14,1.1,0.045,0.7,0.55,0.12,6.0,1.2
8477,0.8551374306948213,0.738532283107097,0.9063186813186813,0.8350655219159512,0.6180048661800487,0.9215083798882682,0.889744824265768,0.34185733512786004,3640,4426,411,badstress_00438,10.0,0.07,3.8,0.14,1.3,0.015,0.7,0.55,0.12,6.0,1.2
8477,0.8802642444260942,0.7732563335671302,0.9068681318681319,0.8888386805241754,0.5523114355231143,0.9205242610150586,0.8892405063291139,0.4860813704496788,3640,4426,411,badstress_00439,10.0,0.07,3.8,0.14,1.3,0.03,0.7,0.55,0.12,6.0,1.2
8477,0.8917069718060635,0.7930508653695435,0.9068681318681319,0.9143696339810212,0.51338199513382,0.9205242610150586,0.88866930171278,0.6261127596439169,3640,4426,411,badstress_00440,10.0,0.07,3.8,0.14,1.3,0.045,0.7,0.55,0.12,6.0,1.2
8477,0.8318980771499351,0.7158159787490298,0.906043956043956,0.7844554902846814,0.6861313868613139,0.9214864487286951,0.8909417500641519,0.2817182817182817,3640,4426,411,badstress_00441,10.0,0.07,3.8,0.2,0.9,0.015,0.7,0.55,0.12,6.0,1.2
8477,0.868231685737879,0.7581520785264172,0.9068681318681319,0.8610483506552191,0.6034063260340633,0.9205242610150586,0.8904205607476635,0.40589198036006546,3640,4426,411,badstress_00442,10.0,0.07,3.8,0.2,0.9,0.03,0.7,0.55,0.12,6.0,1.2
8477,0.8861625575085526,0.7852175478198514,0.9068681318681319,0.9005874378671487,0.5474452554744526,0.9205242610150586,0.8899307881223487,0.5461165048543689,3640,4426,411,badstress_00443,10.0,0.07,3.8,0.2,0.9,0.045,0.7,0.55,0.12,6.0,1.2
8477,0.8361448625693052,0.7201536732917573,0.9063186813186813,0.7930411206507004,0.6788321167883211,0.9215083798882682,0.8913153885220925,0.2909280500521376,3640,4426,411,badstress_00444,10.0,0.07,3.8,0.2,1.1,0.015,0.7,0.55,0.12,6.0,1.2
8477,0.870355078447564,0.7608398198205055,0.9068681318681319,0.8657930411206507,0.5961070559610706,0.9205242610150586,0.8903345724907064,0.41737649063032367,3640,4426,411,badstress_00445,10.0,0.07,3.8,0.2,1.1,0.03,0.7,0.55,0.12,6.0,1.2
8477,0.8868703550784476,0.7860828677844597,0.9068681318681319,0.9023949389968369,0.5425790754257908,0.9205242610150586,0.8897304522165292,0.554726368159204,3640,4426,411,badstress_00446,10.0,0.07,3.8,0.2,1.1,0.045,0.7,0.55,0.12,6.0,1.2
8477,0.8434587707915536,0.7243165214873754,0.9063186813186813,0.8111161319475825,0.635036496350365,0.9215083798882682,0.8892742135248948,0.30348837209302326,3640,4426,411,badstress_00447,10.0,0.07,3.8,0.2,1.3,0.015,0.7,0.55,0.12,6.0,1.2
8477,0.873186268727144,0.7611218251647482,0.9068681318681319,0.8743786714866697,0.5620437956204379,0.9205242610150586,0.8884297520661157,0.43177570093457945,3640,4426,411,badstress_00448,10.0,0.07,3.8,0.2,1.3,0.03,0.7,0.55,0.12,6.0,1.2
8477,0.8875781526483426,0.7847353767433086,0.9068681318681319,0.9055580659737912,0.5231143552311436,0.9205242610150586,0.8884947905120816,0.5657894736842105,3640,4426,411,badstress_00449,10.0,0.07,3.8,0.2,1.3,0.045,0.7,0.55,0.12,6.0,1.2
8477,0.826235696590775,0.7087499463815362,0.906043956043956,0.7736104835065521,0.6861313868613139,0.9214864487286951,0.8914345222598282,0.2667928098391675,3640,4426,411,badstress_00450,10.0,0.07,3.8,0.28,0.9,0.015,0.7,0.55,0.12,6.0,1.2
8477,0.8632771027486139,0.7497245991125627,0.9068681318681319,0.8515589697243561,0.6034063260340633,0.9205242610150586,0.8897544853635505,0.3786259541984733,3640,4426,411,badstress_00451,10.0,0.07,3.8,0.28,0.9,0.03,0.7,0.55,0.12,6.0,1.2
8477,0.8828595021823759,0.7780591784373989,0.9068681318681319,0.8942611839132399,0.5474452554744526,0.9205242610150586,0.8892383733992362,0.5113636363636364,3640,4426,411,badstress_00452,10.0,0.07,3.8,0.28,0.9,0.045,0.7,0.55,0.12,6.0,1.2
8477,0.8307184145334434,0.7133083686730296,0.9063186813186813,0.7826479891549932,0.6788321167883211,0.9215083798882682,0.8911757139181888,0.27623762376237626,3640,4426,411,badstress_00453,10.0,0.07,3.8,0.28,1.1,0.015,0.7,0.55,0.12,6.0,1.2
8477,0.8656364279815972,0.752575731056027,0.9068681318681319,0.8567555354722096,0.5961070559610706,0.9205242610150586,0.8897231346785547,0.38950715421303655,3640,4426,411,badstress_00454,10.0,0.07,3.8,0.28,1.1,0.03,0.7,0.55,0.12,6.0,1.2
8477,0.8836852660139201,0.7790872725325594,0.9068681318681319,0.8962946226841392,0.5425790754257908,0.9205242610150586,0.8890632003585835,0.5198135198135199,3640,4426,411,badstress_00455,10.0,0.07,3.8,0.28,1.1,0.045,0.7,0.55,0.12,6.0,1.2
8477,0.8389760528488852,0.7183395070839387,0.9063186813186813,0.8025305015815635,0.635036496350365,0.9215083798882682,0.8891113892365456,0.2893569844789357,3640,4426,411,badstress_00456,10.0,0.07,3.8,0.28,1.3,0.015,0.7,0.55,0.12,6.0,1.2
8477,0.8692933820927214,0.753974184173603,0.9068681318681319,0.8669227293267058,0.5620437956204379,0.9205242610150586,0.8879888914603101,0.4052631578947368,3640,4426,411,badstress_00457,10.0,0.07,3.8,0.28,1.3,0.03,0.7,0.55,0.12,6.0,1.2
8477,0.8849828948920608,0.7789245595216238,0.9068681318681319,0.9005874378671487,0.5231143552311436,0.9205242610150586,0.8879483181109379,0.5348258706467661,3640,4426,411,badstress_00458,10.0,0.07,3.8,0.28,1.3,0.045,0.7,0.55,0.12,6.0,1.2
8477,0.8460540285478353,0.731754996783977,0.9057692307692308,0.8136014460009038,0.6666666666666666,0.9214645053102292,0.8917781079742447,0.31823461091753774,3640,4426,411,badstress_00459,10.0,0.07,4.4,0.14,0.9,0.015,0.7,0.55,0.12,6.0,1.2
8477,0.8770791553615666,0.7725151072706788,0.9068681318681319,0.8791233619521012,0.5912408759124088,0.9205242610150586,0.8914089347079038,0.4619771863117871,3640,4426,411,badstress_00460,10.0,0.07,4.4,0.14,0.9,0.03,0.7,0.55,0.12,6.0,1.2
8477,0.8907632417128701,0.7937271114518621,0.9068681318681319,0.9107546317216448,0.5328467153284672,0.9205242610150586,0.8898454746136866,0.6066481994459834,3640,4426,411,badstress_00461,10.0,0.07,4.4,0.14,0.9,0.045,0.7,0.55,0.12,6.0,1.2
8477,0.8490031850890646,0.7348981927153709,0.906043956043956,0.8197017623136015,0.6593673965936739,0.9214864487286951,0.8918387413962635,0.3265060240963855,3640,4426,411,badstress_00462,10.0,0.07,4.4,0.14,1.1,0.015,0.7,0.55,0.12,6.0,1.2
8477,0.8783767842397074,0.7740260717588359,0.9068681318681319,0.8822864889290556,0.583941605839416,0.9205242610150586,0.8911455956184391,0.4715127701375246,3640,4426,411,badstress_00463,10.0,0.07,4.4,0.14,1.1,0.03,0.7,0.55,0.12,6.0,1.2
8477,0.8912351067594668,0.7941406548076043,0.9068681318681319,0.912110257568911,0.5279805352798054,0.9205242610150586,0.8895989422653151,0.6147308781869688,3640,4426,411,badstress_00464,10.0,0.07,4.4,0.14,1.1,0.045,0.7,0.55,0.12,6.0,1.2
8477,0.8545475993865754,0.7379896934114805,0.9063186813186813,0.8337098960686851,0.6204379562043796,0.9215083798882682,0.8897998553170967,0.34,3640,4426,411,badstress_00465,10.0,0.07,4.4,0.14,1.3,0.015,0.7,0.55,0.12,6.0,1.2
8477,0.8800283119027958,0.7731384185931484,0.9068681318681319,0.8881608676005422,0.5547445255474452,0.9205242610150586,0.889366515837104,0.4840764331210191,3640,4426,411,badstress_00466,10.0,0.07,4.4,0.14,1.3,0.03,0.7,0.55,0.12,6.0,1.2
8477,0.8915890055444143,0.793139221472614,0.9068681318681319,0.9139177586985991,0.5158150851581509,0.9205242610150586,0.8888156449132059,0.6235294117647059,3640,4426,411,badstress_00467,10.0,0.07,4.4,0.14,1.3,0.045,0.7,0.55,0.12,6.0,1.2
8477,0.8288309543470568,0.7130990661757107,0.9057692307692308,0.7779032986895617,0.6958637469586375,0.9219798657718121,0.8912762101993269,0.27552986512524086,3640,4426,411,badstress_00468,10.0,0.07,4.4,0.2,0.9,0.015,0.7,0.55,0.12,6.0,1.2
8477,0.8666981243364398,0.7565310490978335,0.9068681318681319,0.8574333483958427,0.610705596107056,0.9205242610150586,0.8906360009387467,0.3984126984126984,3640,4426,411,badstress_00469,10.0,0.07,4.4,0.2,0.9,0.03,0.7,0.55,0.12,6.0,1.2
8477,0.88510086115371,0.7835898164827325,0.9068681318681319,0.8981021238138274,0.5523114355231143,0.9205242610150586,0.8900582176444245,0.5341176470588235,3640,4426,411,badstress_00470,10.0,0.07,4.4,0.2,0.9,0.045,0.7,0.55,0.12,6.0,1.2
8477,0.833195706028076,0.7174758924210698,0.906043956043956,0.7867148666967917,0.6885644768856448,0.9220016773832821,0.8916773367477593,0.28442211055276384,3640,4426,411,badstress_00471,10.0,0.07,4.4,0.2,1.1,0.015,0.7,0.55,0.12,6.0,1.2
8477,0.8688215170461248,0.7591625807526544,0.9068681318681319,0.8621780388612743,0.6034063260340633,0.9205242610150586,0.8905484247374562,0.40924092409240925,3640,4426,411,badstress_00472,10.0,0.07,4.4,0.2,1.1,0.03,0.7,0.55,0.12,6.0,1.2
8477,0.885808658723605,0.7844314826082477,0.9068681318681319,0.8999096249435156,0.5474452554744526,0.9205242610150586,0.8898570151921358,0.5421686746987951,3640,4426,411,badstress_00473,10.0,0.07,4.4,0.2,1.1,0.045,0.7,0.55,0.12,6.0,1.2
8477,0.8414533443435177,0.7221210473695524,0.9063186813186813,0.806823316764573,0.6399026763990268,0.921765856384465,0.8896362730443448,0.29751131221719457,3640,4426,411,badstress_00474,10.0,0.07,4.4,0.2,1.3,0.015,0.7,0.55,0.12,6.0,1.2
8477,0.8720066061106524,0.7596933616868347,0.9068681318681319,0.8716674197921374,0.5669099756690997,0.9205242610150586,0.8885306310456011,0.424408014571949,3640,4426,411,badstress_00475,10.0,0.07,4.4,0.2,1.3,0.03,0.7,0.55,0.12,6.0,1.2
8477,0.8867523888167984,0.7836087867322933,0.9068681318681319,0.903524627202892,0.5279805352798054,0.9205242610150586,0.8886666666666667,0.5549872122762148,3640,4426,411,badstress_00476,10.0,0.07,4.4,0.2,1.3,0.045,0.7,0.55,0.12,6.0,1.2
8477,0.8226967087413,0.7056230789484038,0.9057692307692308,0.7661545413465883,0.6958637469586375,0.9219798657718121,0.8918990005260389,0.2602365787079163,3640,4426,411,badstress_00477,10.0,0.07,4.4,0.28,0.9,0.015,0.7,0.55,0.12,6.0,1.2
8477,0.8613896425622272,0.7476992615325799,0.9068681318681319,0.8472661545413466,0.610705596107056,0.9205242610150586,0.889890840056953,0.3707533234859675,3640,4426,411,badstress_00478,10.0,0.07,4.4,0.28,0.9,0.03,0.7,0.55,0.12,6.0,1.2
8477,0.881561873304235,0.7760709351481813,0.9068681318681319,0.8913239945774966,0.5523114355231143,0.9205242610150586,0.8893146979260595,0.4989010989010989,3640,4426,411,badstress_00479,10.0,0.07,4.4,0.28,0.9,0.045,0.7,0.55,0.12,6.0,1.2
8477,0.8275333254689159,0.7104645463583501,0.906043956043956,0.7758698599186624,0.6885644768856448,0.9220016773832821,0.8917164372890158,0.2697807435653003,3640,4426,411,badstress_00480,10.0,0.07,4.4,0.28,1.1,0.015,0.7,0.55,0.12,6.0,1.2
8477,0.8639849003185089,0.7508631805405344,0.9068681318681319,0.8529145955716222,0.6034063260340633,0.9205242610150586,0.8899104196133899,0.38212634822804314,3640,4426,411,badstress_00481,10.0,0.07,4.4,0.28,1.1,0.03,0.7,0.55,0.12,6.0,1.2
8477,0.8826235696590775,0.7775626507050641,0.9068681318681319,0.8938093086308179,0.5474452554744526,0.9205242610150586,0.8891885817037537,0.5090497737556561,3640,4426,411,badstress_00482,10.0,0.07,4.4,0.28,1.1,0.045,0.7,0.55,0.12,6.0,1.2
8477,0.8367346938775511,0.7159097758306961,0.9063186813186813,0.7977858111161319,0.6399026763990268,0.921765856384465,0.889644746787604,0.2831001076426265,3640,4426,411,badstress_00483,10.0,0.07,4.4,0.28,1.3,0.015,0.7,0.55,0.12,6.0,1.2
8477,0.8679957532145807,0.7524585219732148,0.9068681318681319,0.8639855399909625,0.5669099756690997,0.9205242610150586,0.8880631676730144,0.39829059829059826,3640,4426,411,badstress_00484,10.0,0.07,4.4,0.28,1.3,0.03,0.7,0.55,0.12,6.0,1.2
8477,0.8841571310605167,0.777883526166768,0.9068681318681319,0.8985539990962494,0.5279805352798054,0.9205242610150586,0.8881196962929879,0.5254237288135594,3640,4426,411,badstress_00485,10.0,0.07,4.4,0.28,1.3,0.045,0.7,0.55,0.12,6.0,1.2
8477,0.8530140379851362,0.7350544849617267,0.9065934065934066,0.8314505196565748,0.610705596107056,0.9205020920502092,0.8882452329230026,0.33511348464619495,3640,4426,411,badstress_00486,12.0,0.035,3.2,0.14,0.9,0.015,0.7,0.55,0.12,6.0,1.2
8477,0.8812079745192875,0.775175716584236,0.9068681318681319,0.8906461816538636,0.5523114355231143,0.9205242610150586,0.8894404332129964,0.49455337690631807,3640,4426,411,badstress_00487,12.0,0.035,3.2,0.14,0.9,0.03,0.7,0.55,0.12,6.0,1.2
8477,0.8928866344225551,0.7944711633730908,0.9068681318681319,0.9175327609579756,0.5036496350364964,0.9205242610150586,0.8882327209098863,0.6489028213166145,3640,4426,411,badstress_00488,12.0,0.035,3.2,0.14,0.9,0.045,0.7,0.55,0.12,6.0,1.2
8477,0.8550194644331721,0.737324071840197,0.9068681318681319,0.8355173971983733,0.6058394160583942,0.9205242610150586,0.8883017055008408,0.34203296703296704,3640,4426,411,badstress_00489,12.0,0.035,3.2,0.14,1.1,0.015,0.7,0.55,0.12,6.0,1.2
8477,0.8820337383508317,0.7761595571955268,0.9068681318681319,0.8926796204247628,0.5474452554744526,0.9205242610150586,0.8892640108035111,0.5022321428571429,3640,4426,411,badstress_00490,12.0,0.035,3.2,0.14,1.1,0.03,0.7,0.55,0.12,6.0,1.2
8477,0.8932405332075026,0.7949844516155892,0.9068681318681319,0.9184365115228197,0.5012165450121655,0.9205242610150586,0.8881363338431287,0.6560509554140127,3640,4426,411,badstress_00491,12.0,0.035,3.2,0.14,1.1,0.045,0.7,0.55,0.12,6.0,1.2
8477,0.8596201486374897,0.7410355002307446,0.9068681318681319,0.8465883416177135,0.5815085158150851,0.9205242610150586,0.8872839213829031,0.35778443113772457,3640,4426,411,badstress_00492,12.0,0.035,3.2,0.14,1.3,0.015,0.7,0.55,0.12,6.0,1.2
8477,0.882977468444025,0.775563764064931,0.9068681318681319,0.8960686850429281,0.5304136253041363,0.9205242610150586,0.8882418812989922,0.5117370892018779,3640,4426,411,badstress_00493,12.0,0.035,3.2,0.14,1.3,0.03,0.7,0.55,0.12,6.0,1.2
8477,0.893476465730801,0.795199083957094,0.9068681318681319,0.9191143244464528,0.49878345498783455,0.9205242610150586,0.888015717092338,0.6612903225806451,3640,4426,411,badstress_00494,12.0,0.035,3.2,0.14,1.3,0.045,0.7,0.55,0.12,6.0,1.2
8477,0.8499469151822578,0.7306490220381283,0.9065934065934066,0.8255761409850881,0.610705596107056,0.9205020920502092,0.8877551020408163,0.3234536082474227,3640,4426,411,badstress_00495,12.0,0.035,3.2,0.2,0.9,0.015,0.7,0.55,0.12,6.0,1.2
8477,0.8797923793794975,0.7723071970649208,0.9068681318681319,0.8879349299593312,0.5523114355231143,0.9205242610150586,0.8891402714932126,0.4819532908704883,3640,4426,411,badstress_00496,12.0,0.035,3.2,0.2,0.9,0.03,0.7,0.55,0.12,6.0,1.2
8477,0.8924147693759584,0.7932782871058651,0.9068681318681319,0.9166290103931315,0.5036496350364964,0.9205242610150586,0.8881348511383538,0.6408668730650154,3640,4426,411,badstress_00497,12.0,0.035,3.2,0.2,0.9,0.045,0.7,0.55,0.12,6.0,1.2
8477,0.8520703078919429,0.7329966312248485,0.9068681318681319,0.8298689561680976,0.6058394160583942,0.9205242610150586,0.8878414309886391,0.3302387267904509,3640,4426,411,badstress_00498,12.0,0.035,3.2,0.2,1.1,0.015,0.7,0.55,0.12,6.0,1.2
8477,0.8807361094726908,0.7734926264667674,0.9068681318681319,0.8901943063714415,0.5474452554744526,0.9205242610150586,0.8889891696750902,0.49019607843137253,3640,4426,411,badstress_00499,12.0,0.035,3.2,0.2,1.1,0.03,0.7,0.55,0.12,6.0,1.2
8477,0.8927686681609059,0.7937825492511669,0.9068681318681319,0.9175327609579756,0.5012165450121655,0.9205242610150586,0.8880384867701727,0.6477987421383647,3640,4426,411,badstress_00500,12.0,0.035,3.2,0.2,1.1,0.045,0.7,0.55,0.12,6.0,1.2
8477,0.8572608234045063,0.7373740036495416,0.9068681318681319,0.842069588793493,0.5815085158150851,0.9205242610150586,0.8869585911470729,0.3468795355587808,3640,4426,411,badstress_00501,12.0,0.035,3.2,0.2,1.3,0.015,0.7,0.55,0.12,6.0,1.2
8477,0.8819157720891825,0.7733423791733031,0.9068681318681319,0.8940352462720289,0.5304136253041363,0.9205242610150586,0.8880161579892281,0.5011494252873563,3640,4426,411,badstress_00502,12.0,0.035,3.2,0.2,1.3,0.03,0.7,0.55,0.12,6.0,1.2
8477,0.8931225669458535,0.7942918476562958,0.9068681318681319,0.9184365115228197,0.49878345498783455,0.9205242610150586,0.8879423328964613,0.6549520766773163,3640,4426,411,badstress_00503,12.0,0.035,3.2,0.2,1.3,0.045,0.7,0.55,0.12,6.0,1.2
8477,0.849357083874012,0.7298342662002147,0.9065934065934066,0.824446452779033,0.610705596107056,0.9205020920502092,0.8876185842860618,0.3213828425096031,3640,4426,411,badstress_00504,12.0,0.035,3.2,0.28,0.9,0.015,0.7,0.55,0.12,6.0,1.2
8477,0.8793205143329008,0.7713649671558237,0.9068681318681319,0.8870311793944872,0.5523114355231143,0.9205242610150586,0.8890398550724637,0.47789473684210526,3640,4426,411,badstress_00505,12.0,0.035,3.2,0.28,0.9,0.03,0.7,0.55,0.12,6.0,1.2
