diagnostic_bucket,n,raw_bad_rate,badcal_bad_rate,raw_correct_rate,badcal_correct_rate,prob_bad_mean,prob_bad_p90,bad_sigmoid_mean,bad_sigmoid_p90,artifact_bad_sigmoid_mean,artifact_bad_sigmoid_p90,artifact_veto_sigmoid_mean,artifact_veto_sigmoid_p90,bad_router_sigmoid_mean,bad_router_sigmoid_p90,primitive_bad_sigmoid_mean,primitive_bad_sigmoid_p90,stress_sigmoid_mean,stress_sigmoid_p90,event_pred_max_flat_dropout_mean,event_pred_max_flat_dropout_p90,event_target_max_flat_dropout_mean,event_target_max_flat_dropout_p90,event_pred_max_baseline_jump_mean,event_pred_max_baseline_jump_p90,event_target_max_baseline_jump_mean,event_target_max_baseline_jump_p90,event_pred_max_impulse_curvature_mean,event_pred_max_impulse_curvature_p90,event_target_max_impulse_curvature_mean,event_target_max_impulse_curvature_p90,event_pred_max_detail_burst_mean,event_pred_max_detail_burst_p90,event_target_max_detail_burst_mean,event_target_max_detail_burst_p90,event_pred_max_asym_reset_mean,event_pred_max_asym_reset_p90,event_target_max_asym_reset_mean,event_target_max_asym_reset_p90,aux_target_z_qrs_visibility_mean,aux_target_z_qrs_visibility_p90,aux_pred_z_qrs_visibility_mean,aux_pred_z_qrs_visibility_p90,aux_target_z_detector_agreement_mean,aux_target_z_detector_agreement_p90,aux_pred_z_detector_agreement_mean,aux_pred_z_detector_agreement_p90,aux_target_z_baseline_step_mean,aux_target_z_baseline_step_p90,aux_pred_z_baseline_step_mean,aux_pred_z_baseline_step_p90,aux_target_z_sqi_basSQI_mean,aux_target_z_sqi_basSQI_p90,aux_pred_z_sqi_basSQI_mean,aux_pred_z_sqi_basSQI_p90,aux_target_z_flatline_ratio_mean,aux_target_z_flatline_ratio_p90,aux_pred_z_flatline_ratio_mean,aux_pred_z_flatline_ratio_p90,aux_target_z_pc1_mean,aux_target_z_pc1_p90,aux_pred_z_pc1_mean,aux_pred_z_pc1_p90,aux_target_z_pc2_mean,aux_target_z_pc2_p90,aux_pred_z_pc2_mean,aux_pred_z_pc2_p90,aux_target_z_pc3_mean,aux_target_z_pc3_p90,aux_pred_z_pc3_mean,aux_pred_z_pc3_p90,aux_target_z_pca_margin_mean,aux_target_z_pca_margin_p90,aux_pred_z_pca_margin_mean,aux_pred_z_pca_margin_p90,aux_target_z_boundary_confidence_mean,aux_target_z_boundary_confidence_p90,aux_pred_z_boundary_confidence_mean,aux_pred_z_boundary_confidence_p90,aux_target_z_knn_label_purity_mean,aux_target_z_knn_label_purity_p90,aux_pred_z_knn_label_purity_mean,aux_pred_z_knn_label_purity_p90,aux_target_z_non_qrs_diff_p95_mean,aux_target_z_non_qrs_diff_p95_p90,aux_pred_z_non_qrs_diff_p95_mean,aux_pred_z_non_qrs_diff_p95_p90
bad_core_nearboundary,119,0.6638655462184874,0.8739495798319328,0.6638655462184874,0.8739495798319328,0.6136591312110604,0.9455053210258484,0.9297064647328954,0.9978067636489868,0.4589271813380618,0.5934596300125122,0.933575020367358,0.9956828594207764,0.5475657334236109,0.7820021510124207,0.9268305877677533,0.929877769947052,0.8429232721506548,0.9982537865638733,0.5215950688394178,0.5382960319519043,0.5431328836609336,0.7389706492424011,0.623760234408018,0.6332386374473572,0.373061435312784,0.445178097486496,0.5474804269165552,0.5559378147125245,0.5809849112474618,0.6757167458534241,0.5899357585345998,0.6051110625267029,0.9870751264716396,0.9876779079437256,0.5747438348641917,0.5896793723106384,0.9747529660954195,0.9878077268600464,-1.106250949266578,-1.0421835422515868,-0.3243929081353821,-0.2671683430671692,1.2981479192512626,1.792336106300354,0.37360885528017995,0.5308302998542785,-0.5887265503719574,-0.3881895065307617,-0.7404707256986314,-0.2719254434108734,0.46140494567005574,0.5193715572357178,0.5938108712434769,0.7184664249420166,-1.0572188531651217,-1.0339491367340088,-0.9084836056753367,-0.5479940891265869,1.7260922033245825,1.8077507734298706,1.4409923811419671,1.9295690298080443,-0.5061696730241054,-0.4385953366756439,-0.25532182011784627,-0.22810459434986113,-0.12687860622595087,0.07230336964130403,-0.4513578135363695,0.1235522627830507,0.5653271584951577,0.6817593216896057,1.3925082310721153,1.9077081441879273,-0.8553183344231934,-0.8404579877853393,0.602159433004235,0.832194709777832,0.5967285645609143,0.5967285633087158,0.4369824846909076,0.624334168434143,2.312052542421998,2.5437125682830812,1.3391126836923992,1.8495550155639648
bad_outlier_stress,292,0.13356164383561644,0.22602739726027396,0.13356164383561644,0.22602739726027396,0.1357992651148429,0.9382418096065523,0.3509781160316117,0.993167406320572,0.5647622863315556,0.6959503054618835,0.395592003429232,0.9932422757148742,0.16483404790987466,0.9255281984806061,0.8936234823849103,0.9305331826210022,0.1394761136796984,0.9508140027523043,0.5200040049544753,0.5335188388824463,0.8009321546973023,0.9650639295578003,0.6338102989000817,0.6533092558383942,0.4818214962437545,0.8040572166442873,0.5414373758312774,0.5569636404514313,0.9773557963844848,0.9972028255462646,0.584621888317474,0.6045778274536133,0.9877093605799218,0.9891495287418366,0.5735530706301127,0.5912780106067658,0.9999993353673856,1.0,-1.373775486362307,-1.051414096355438,0.40682947962251426,0.8880160808563232,-0.4736392663932112,0.21322542428970337,-0.30048893064209453,0.023192614689471102,1.5926679830315638,2.8965031623840343,-0.22652437949986898,0.06583057045936586,-1.7609540199069944,-0.5320272266864768,0.2644632554115498,0.43840799927711516,2.0188067832336545,3.6317862033844004,0.18800219658711184,0.6492487251758576,-0.8620329749170844,-0.29082638919353465,-0.2643849680053504,0.7878196239471443,2.0306517091924197,3.167029285430909,-0.31700570016384944,-0.11836496591567991,-0.8077974421951333,0.32613122761249547,-0.1635153431139172,0.21442058682441717,-2.3856832225845284,-1.9525121808052062,-0.14734103190648842,0.8654314756393443,-2.1698140738761587,-2.114591336250305,0.07356829113288693,0.442496058344841,-2.754572767917424,-2.667147397994995,0.346005890103797,0.48880126476287844,-0.6827816572694159,-0.20836021155118933,-0.26162940635001414,0.7526849269866944
good_correct_raw,3139,0.0,0.03727301688435808,1.0,0.962726983115642,0.005479543932905668,0.0007912906934507203,0.03182860348261946,0.04980923980474479,0.20975518602594215,0.35016391277313236,0.9889146180986034,0.9986363291740418,0.02761375138368224,0.0037826089188456704,0.8986812352032827,0.9215503215789795,0.015502409179562068,0.006197570078074935,0.5306490634649033,0.5443680763244629,0.782596013298381,0.9358202219009399,0.6292946581135666,0.6414716124534607,0.7902701259485359,0.9701328873634338,0.5495979845352938,0.5596779346466064,0.9968376712041055,0.9979552984237671,0.5610030711209861,0.5725448369979859,0.9878492679858747,0.9880605220794678,0.5498978107474571,0.5669818758964539,1.0,1.0,-0.4651682948760116,0.1878039121627813,0.7790791864615787,0.8976289987564087,-0.6842593017659367,-0.30356961488723755,-0.4842241023064571,-0.39791455864906305,0.5245486403418556,1.5780761718750003,-0.19098619921485988,-0.10110009014606469,-0.9109867160274122,0.017925127968192105,0.2255466254739558,0.2673252284526825,1.6653092159886969,2.3301307201385515,0.6001727644492958,0.7255134582519531,-1.0893675629482713,-0.8146718740463256,-0.6925519904888414,-0.5051896452903745,0.8221247326922014,1.9629378795623784,-0.41868325906522946,-0.311406397819519,-0.7933076966193295,0.28460032939910984,-0.17544986966459775,-0.14131875038146968,-0.36327773151478954,-0.10783262997865672,-0.4565905074168539,-0.3932346165180206,-0.10671433920983153,0.3544611394405366,0.04448341141452205,0.09639855623245251,0.6130309212749914,0.7132956385612488,0.4264559420327086,0.47058736681938174,-0.9317114074714778,-0.8367079257965087,-0.6257111871987107,-0.5029883861541747
medium_correct_raw,3322,0.0,0.0,1.0,1.0,0.00035066320178019637,0.0003700717235915363,0.018927351377319466,0.01963398028165102,0.19524882810974178,0.28465302586555485,0.9797135104914743,0.9986766934394836,0.0005677801464459665,6.217606596692355e-07,0.9090858329354389,0.9255031049251556,0.001442234837923528,0.0011740204645320773,0.5368579941600435,0.5502419114112854,0.6957346499885765,0.9325637817382812,0.6237736083096155,0.6436789333820343,0.662093245663749,0.9078784704208375,0.5519611344934586,0.5643892526626587,0.9803443021762809,0.9970420479774476,0.5618853537631566,0.5752225577831268,0.9880168055605271,0.9887345731258392,0.5462073182069273,0.5636867165565491,0.9999707775220751,1.0,-0.8417671598978235,0.34938094913959505,-0.22443987359334858,-0.20570573955774307,-0.2914789000308519,0.8112026453018188,-0.16947737996382914,-0.1483646735548973,0.7318711668018949,2.2207934617996217,0.06855662270745712,0.08457144498825073,-0.6175173564637932,0.42574068009853366,0.10880603148528498,0.1276619702577591,-0.2441696861929421,0.42997241020202637,-0.25806744091273304,-0.18216039240360257,-0.1892580635696985,0.0643805213272572,-0.21255607659940276,-0.19833263009786606,0.4617293307939924,2.0837451219558716,-0.12858787315467587,-0.10108447298407555,0.6825334377517227,1.5530511379241945,0.29495377808502016,0.37127562761306765,-0.29240032028994534,0.024602169729769238,-0.33259418724056544,-0.32076649069786073,-0.0010362819464378786,1.2801677346229554,-0.20368139021724355,-0.18319628685712813,-0.03867033918313615,0.7132956385612488,-0.01899257581400663,0.023736991733312608,-0.29880298821515483,0.23731524795293835,-0.3114732173512578,-0.2940876126289368
medium_false_badcal,566,0.6855123674911661,1.0,0.10424028268551237,0.0,0.6332034821648401,0.9752568006515503,0.7828118975436547,0.9971626102924347,0.3675516820891165,0.6190244853496552,0.8480920779861036,0.9981733560562134,0.7818518809352215,0.9745416045188904,0.8762162813765422,0.9393455386161804,0.7501544976807916,0.9988820552825928,0.5279763762184251,0.5419090688228607,0.9605559925729731,0.9875695109367371,0.642829456935923,0.6556231677532196,0.23466388516575626,0.3144979923963547,0.5413895652698544,0.5522781908512115,0.9805837706415897,0.9960214495658875,0.5776679176745061,0.591470330953598,0.987679617986241,0.9887307286262512,0.5623862452726061,0.5763239860534668,0.9999973849778462,1.0,-1.5423706046999974,-1.4264764189720154,-0.07493384912044021,0.4380049705505371,-0.8681825290470262,-0.5486038327217102,0.12543340711837944,0.4768783897161484,2.262081878161051,3.518569588661194,-0.6117335870901498,-0.18613896518945694,-3.511523357536578,-2.370139241218567,0.4629602594426159,0.6856871843338013,2.342614137640288,3.786997079849243,-0.515144556454735,0.1632983237504959,-1.0233064407294339,-0.5958762764930725,0.969620125262929,1.8781117796897888,3.206275865382946,4.159043312072754,-0.2181089448449679,-0.1426744908094406,-1.1338443596157914,0.11782608926296234,-0.5304562940917146,-0.17538605630397797,-0.7809012140881257,-0.6119913458824158,1.0093489281615973,1.8660475015640259,-1.7498979800160277,-1.1534741520881653,0.4658339584999892,0.8077502250671387,-2.013877997737602,-0.8020754456520081,0.47143195956524186,0.6693759262561798,-0.9727794971619815,-0.8870345056056976,0.9325448630012361,1.8302273750305176
non_test,24479,0.20237754810245517,0.2092405735528412,0.8173127987254382,0.8127374484251808,0.19928141435811633,0.9876905918121338,0.2083385275807108,0.9986676454544068,0.22633384166321843,0.5433525919914246,0.9362067732373472,0.9985553622245789,0.18990173401329985,0.9239538311958313,0.9040162201968228,0.9400782823562622,0.2041158634484024,0.99896240234375,0.5377604244454555,0.5561078786849976,0.7845778498644752,0.9875695109367371,0.616686538234977,0.6319730043411255,0.717262275126485,0.9524165391921997,0.5551044533268202,0.5688019633293152,0.9229609073748497,0.9972830533981323,0.5618628363013438,0.5882941246032715,0.9882600555803083,0.989783251285553,0.5440784071102374,0.5711736798286438,0.995945756332348,1.0,0.4726089804180033,1.9794673442840576,0.10710231982624432,0.8627796173095703,0.07932898818815308,1.792336106300354,-0.15349949704497381,0.5729323506355286,-0.3109403634094767,0.6694177150726321,-0.22786194647128294,0.08164899945259095,0.25722969088829545,0.5853994727134705,0.26243912696033633,0.7361908435821534,0.21353781744116698,1.8774321556091351,-0.08239646913861381,0.7157909631729126,-0.06467868758555867,2.000004529953003,0.03382483675476029,2.0160401344299315,-0.30471418356325314,0.38489081859588625,-0.24816050918253035,-0.10616353452205658,-0.28063375866196805,1.096448850631714,-0.12393268108420576,0.33808917403221134,0.10064937002110723,1.9703355789184571,0.07517288633846281,2.0295112133026123,0.2524681731020744,1.5662623167037966,0.09554177698864513,0.8805392146110534,0.3141849466922038,0.7132956385612488,0.2918245672531783,0.7046686768531799,-0.012420976895392516,1.9707583427429198,0.0076744233324762805,1.9664537906646729
other_test,1039,0.10105871029836382,0.10202117420596728,0.0,0.0,0.08494880491354297,0.4325553536415138,0.12566898833538778,0.7702972769737251,0.2679443602899271,0.4720599591732026,0.9255127807383545,0.998568081855774,0.09958023025352446,0.8406286954879768,0.9051866687984852,0.9331897020339965,0.09912663520269485,0.5511989593505894,0.5323255179419439,0.5459139108657837,0.8185093826376784,0.9742535948753357,0.6298898187707088,0.648824667930603,0.45989204550213947,0.8904662966728211,0.5493730774169019,0.5619932293891907,0.9909186877231396,0.9975154638290405,0.5678607601174033,0.5814431428909301,0.98773707330399,0.9884881734848022,0.5536458853693165,0.5713071584701538,0.9999989527022185,1.0,-1.1219687141528258,-0.4520233213901519,0.18317113443492009,0.7653247594833374,-0.6234838331621982,0.24985291957856057,-0.2526886437672681,-0.12951374948024733,1.2594875558646965,2.672071170806885,-0.1141779113263322,0.08574796617031097,-1.538998177975066,0.23354919254779816,0.2025337284063352,0.3245322406291978,0.9268301147092501,2.3830433368682864,0.0531210360118153,0.5474948763847352,-0.7100044980975042,-0.29271777272224425,-0.24695069777050538,0.22093977928162226,1.577221651526152,3.004497003555298,-0.23017236853558015,-0.10566097348928451,-0.2689999001040379,1.124243474006653,-0.04959326910430474,0.2956853687763214,-0.8596647325992813,-0.573360776901245,-0.22925255233215758,0.3674304664135002,-1.505393379909292,-0.5907219767570495,-0.041356126785895016,0.22090180516243266,-1.6058155777608694,0.4801616370677948,0.22469997814389464,0.45241286158561705,-0.8618181056349293,-0.6797864675521851,-0.2902066472405075,0.21712040305138108
