idx,split,y,class_name,record_id,subject_id,rms,std,ptp_p99_p01,mean_abs,low_amp_ratio,flatline_ratio,contact_loss_win_ratio,local_rms_cv,baseline_step,diff_abs_median,diff_abs_p95,detail_instability,lf_ratio,hf_ratio,qrs_band_ratio,spectral_entropy,qrs_peak_count,aggressive_peak_count,spurious_peak_density,qrs_prom_median,qrs_prom_p90,qrs_width_median,qrs_slope_median,qrs_count_low,qrs_count_high,qrs_count_deviation,periodicity,qrs_visibility,clipping_like_ratio,fatal_or_score,medium_detail_unreliable_score,sqi_iSQI,sqi_bSQI,sqi_pSQI,sqi_sSQI,sqi_kSQI,sqi_fSQI,sqi_basSQI,hjorth_activity,hjorth_mobility,hjorth_complexity,zero_crossing_rate,diff_zero_crossing_rate,sample_entropy_proxy,amplitude_entropy,higuchi_fd_proxy,template_corr,detector_count_std,detector_agreement,rr_count_detector_a,rr_count_detector_b,rr_count_detector_c,non_qrs_rms_ratio,non_qrs_diff_p95,band_0p3_1,band_1_5,band_5_15,band_15_30,band_30_45,wavelet_e0,wavelet_e1,wavelet_e2,wavelet_e3,wavelet_e4,pc1,pc2,pc3,pc4,pc5,pc6,pc7,pc8,pca_own_distance,pca_nearest_other_distance,pca_margin,knn_label_purity,nearest_other_class,is_clean_strict,is_clean_train_target,clean_tier,class_margin_percentile,class_centrality_percentile,ambiguous_type,pca_margin_rank,own_centrality_rank,boundary_confidence,original_region,region_confidence,selected_l10000,selected_l10000_rank,shell_score
26830,test,1,medium,111001,111,0.1836689902540217,0.171508818378947,0.7368417232483625,0.0972061502569879,0.4056,0.6549239391513211,0.1,1.361609592390208,2.81879792571117,0.0015032975934445,0.0105177283287048,0.6996391406901072,0.9168014695041984,0.0016323993722073,0.0133838242186085,0.2834425689364739,15.0,21.0,0.6,0.3284069271056865,0.8734590680898784,0.1063765542074024,0.0301107400119521,0.0,0.0,0.2857142857142857,0.6343181664506929,0.0027470878653474,0.0152,1.0,0.0015940335963582,0.0,0.0,0.7655497904090517,-1.8931144531678707,5.473557378517301,0.0424339471577261,0.164118048756736,0.0294152813515663,0.0518669880105391,17.548148166657704,0.0080064051240992,0.2628205128205128,0.4332526031976428,0.7048853662495622,1.1480484169746323,0.5385024108326096,4.320493798938574,0.1879524791852022,15.0,13.0,5.0,0.8143226182996558,0.007961693406105,0.9168014695041984,0.0676336699198291,0.0123212248927994,0.0029409619694488,0.0003026697515086,0.9963891377450654,0.0026650662175513,0.0007326767449238,0.0001958334983915,1.7265864298720004e-05,-7.291244158834666,23.56480694180733,-2.968283800140362,-0.1818308258994222,8.740138784310076,10.200374067080205,-2.606037704864959,-0.4982115628948547,28.06559299648413,27.87429171443914,-0.1913012820449928,0.1666666666666666,good,False,False,ambiguous_boundary,0.0765901392547986,0.0088445615355664,isolated_medium,0.0765901392547986,0.0088445615355664,0.0945678083051059,outlier_low_confidence,0.0236419520762764,True,9933,3.033558816372531
24918,test,1,medium,111001,111,0.1478213044740803,0.1461458725109074,0.76570926040411,0.0883394747030397,0.296,0.4907926341072858,0.0,1.0072647849174885,3.3211880169586534,0.0025573377497494,0.0248047649860381,0.9699410253638228,0.8913449606257162,0.0061302579766705,0.0241724972184504,0.295582144846661,20.0,35.0,1.5,0.7398745567541614,1.117439999787237,0.087248861394005,0.2673329739642938,0.0,0.0,0.6428571428571429,0.7374153710831574,0.0071538462660568,0.0152,0.8834267413931145,0.0051078490295734,0.0,0.2727272727272479,0.6547831640972354,-1.542070899919331,6.139822994576523,0.021617293835068,0.2003047145410615,0.021358623129057,0.1199402749867261,10.586771159123542,0.0272217774219375,0.2580128205128205,0.325955690870524,0.7815436919511658,1.2761582371095936,0.5932460713580273,4.109609335312651,0.1957096784462507,20.0,16.0,10.0,0.89001304001898,0.0098062798380851,0.8913449606257162,0.0766541888876752,0.0218288486996632,0.0072282072065912,0.002933819255464,0.9856473510368094,0.0095381936802454,0.002824433887165,0.0016693988359248,0.0003205923446884,-4.980473674373643,20.249451300748195,-1.2696170454622655,-0.8120419930759954,3.514891735448244,3.625799978310624,-2.049228854274883,2.612578487449262,21.275349602120645,21.527508699932177,0.252159097811532,0.0666666666666666,good,False,False,ambiguous_boundary,0.1491343620624765,0.0238991343620624,isolated_medium,0.1491343620624765,0.0238991343620624,0.0952236231338602,outlier_low_confidence,0.023805905783465,True,9928,2.9433132558546853
25405,test,1,medium,111001,111,0.2336717942515961,0.2335705659301563,1.5820142680406568,0.1448153226038906,0.1656,0.4291433146517214,0.0,0.8807203492928967,2.86805039351294,0.004248633980751,0.0340830326080321,0.8022096641292897,0.7445588369384213,0.002549150847075,0.0184899372634226,0.4354479875685043,18.0,41.0,2.3,0.7380002602036032,2.190404749020197,0.0849359073362075,0.1883223889225912,0.0,0.0,0.5,0.7123821552357106,0.00413502379138,0.0152,0.7724579663730985,0.0025867710854054,0.0,0.59999999999994,0.7775820594705933,-1.8304896920183216,11.100278243580918,0.0112089671737389,0.3668629197426443,0.0545552145975223,0.1035642493358259,9.35398521154199,0.021617293835068,0.3990384615384615,0.3418134179986948,0.7345072400017979,1.2337928838969252,0.4063821011022437,2.867441755680876,0.2585688584788905,18.0,15.0,11.0,0.5276171997657386,0.0234239265322685,0.7445588369384213,0.2338331514336695,0.0169189373483735,0.004020814253827,0.0006676700783582,0.9787738975307304,0.0144654496460777,0.0058909244527875,0.0007889478278411,8.076869767332429e-05,-5.959479606904803,16.45461671496834,-0.3862047507171859,-0.9166026221676624,3.4142133424846017,1.4655307782800278,-3.802139231872784,-1.2187045059331796,17.839733290671912,17.81329382088591,-0.0264394697860019,0.1,good,False,False,ambiguous_boundary,0.1072638313887843,0.0486450884456153,isolated_medium,0.1072638313887843,0.0486450884456153,0.092997741814076,outlier_low_confidence,0.023249435453519,True,9949,2.919575332025574
25354,test,1,medium,111001,111,0.1447118268647972,0.1447100120264143,0.6901765540242195,0.1098262118330865,0.1152,0.4867894315452362,0.0,0.6773180679607168,3.2905316131342657,0.0025655254721641,0.0137378275394439,0.5354760317484686,0.907435499322414,0.0031416357835897,0.0166178262639177,0.290588144455234,17.0,41.0,2.4,0.6513872508856031,1.395211763602151,0.0866664375935006,0.0635019169966456,0.0,0.0,0.4285714285714285,0.6424106468921607,0.0031837176958082,0.0152,0.8762209767814252,0.0017509911005704,0.0,0.0,0.7131702550197109,0.0452005888550519,3.372997105998131,0.021617293835068,0.1615089823603197,0.0209409946864848,0.0691455007370701,15.623692458550629,0.0192153722978382,0.3934294871794871,0.4762109584307433,0.8192904515754862,1.3062407886251306,0.2252057711928836,2.8284271247461903,0.2612038749637414,17.0,11.0,11.0,0.8276458539021242,0.0117798060178756,0.907435499322414,0.0722548072107001,0.0145948730233352,0.0049699508630716,0.000743905621272,0.9948882264355572,0.0031699261203753,0.0015535020853567,0.0003526165764374,3.5703398838780416e-05,-4.839032027361819,21.083112610594103,-1.9835059362067609,-1.406937536028084,5.0328016784949225,3.78369764145753,-4.529867425381446,0.8399681300686914,22.714825429247465,22.92047882341916,0.2056533941716907,0.0666666666666666,good,False,False,ambiguous_boundary,0.14264207753105,0.0179713963116296,isolated_medium,0.14264207753105,0.0179713963116296,0.0911165474846317,outlier_low_confidence,0.0227791368711579,True,9967,2.916647975895004
25198,test,1,medium,111001,111,0.1371242790255898,0.1371236957485378,0.6839391970634461,0.0966258509888051,0.1512,0.4467574059247398,0.0,0.7583978871875562,3.2953899517581213,0.0029420852661132,0.0226685613393783,0.7704903916767158,0.8443089539281116,0.0031970380333314,0.0231465409847841,0.372521432020212,20.0,40.0,2.0,0.5148456306483721,2.280740080300977,0.1102209457586534,0.0818185301815646,0.0,0.0,0.6428571428571429,0.6701300158011256,0.0039722984968798,0.0152,0.8238474879395303,0.0025123190700562,0.0,0.0,0.8024479074967509,-0.4017701673268583,4.158806917477119,0.0152121697357886,0.2429182356267234,0.0188029151932637,0.094774328938106,11.007956012227096,0.0208166533226581,0.3245192307692308,0.5128085939239259,0.824805692858574,1.2354101071426855,0.2132035817958249,2.943920288775949,0.2535548202751237,20.0,15.0,13.0,0.7064978128335202,0.018035377189517,0.8443089539281116,0.1287551437668787,0.0219447394502138,0.0040184423905064,0.0009654627791808,0.9820892592528933,0.0133846375960691,0.0037060507852999,0.0007461742942153,7.384755939821495e-05,-4.443379383396546,19.51185177316989,-0.9954938230030356,-0.3080828414251222,2.7024132808628227,2.551716004309782,-2.761423831680963,1.3531817002688065,20.14035020320259,20.44283647308536,0.3024862698827633,0.0333333333333333,good,False,False,ambiguous_boundary,0.1562852841550621,0.0303914188934888,isolated_medium,0.1562852841550621,0.0303914188934888,0.0880733283151423,outlier_low_confidence,0.0220183320787855,True,9997,2.8843572428981705
26327,test,1,medium,111001,111,0.1611815719098213,0.1611640803944228,0.845595362484455,0.1198064756463514,0.0992,0.399519615692554,0.1,0.601875674259324,3.060505008341335,0.0035294592380523,0.0457798436284064,1.2970744477622556,0.8450014695248023,0.0093233641774582,0.048312446246944,0.3640928656428072,19.0,45.0,2.6,0.7395292455076292,2.6819376798593835,0.0625679814815657,0.2474445364981654,0.0,0.0,0.5714285714285714,0.6972496238654293,0.0099245741448973,0.0152,0.7651262520853338,0.0083492416618442,0.0,0.8571428571427346,0.7127679212166008,0.6220021307568303,4.291899355391199,0.0240192153722978,0.3301152401311061,0.0259738675860984,0.1558560450377053,7.287234596252351,0.0176140912730184,0.3261217948717949,0.5280669084469899,0.8406388784636373,1.3726672329286205,0.4241726688126114,4.189935029992179,0.1926806393955006,19.0,16.0,9.0,0.6922117565730439,0.0355314165353775,0.8450014695248023,0.0948300991273061,0.0438082868533158,0.0138068344030004,0.0025349461241506,0.9647738864768604,0.02345818770281,0.0085061413142416,0.0028847911473865,0.0003769674891828,-4.708290511071338,17.73550994520423,-1.0890146526596214,-0.7951875270387091,4.741316100455931,4.208429362531665,-0.4386682578523702,-2.83592683817172,19.24114834381584,19.412085847579224,0.1709375037633869,0.0666666666666666,good,False,False,ambiguous_boundary,0.1382197967632668,0.0356605193827625,isolated_medium,0.1382197967632668,0.0356605193827625,0.0926643457533558,outlier_low_confidence,0.0231660864383389,True,9953,2.8736594599004297
26826,test,1,medium,111001,111,0.1706416140873487,0.1583275622195867,0.6545698152482509,0.1116191490406985,0.1952,0.5796637309847879,0.1,0.8746687689090151,2.736902614993088,0.0019578223291318,0.0106111258268356,0.5419833797279592,0.9313727537460312,0.0027209346700698,0.0181029969780253,0.294661872661371,15.0,22.0,0.7,0.4990179162171608,1.5789096690433002,0.1034131421313427,0.0361609946188375,0.0,0.0,0.2857142857142857,0.6330345592678698,0.005313952840741,0.0152,1.0,0.0027626349492038,0.0,0.0,0.7325091648289744,-1.277772116853655,3.7785300966178346,0.032826261008807,0.1290910713743027,0.0250676237918459,0.0633998803854546,15.192473410945176,0.0128102481985588,0.2323717948717948,0.4779019087734183,0.8683876167211204,1.1683404077405235,0.4289147154559729,3.741657386773941,0.2108967220595339,15.0,12.0,6.0,0.7319306720330342,0.0090151946991682,0.9313727537460312,0.0469598145917902,0.016517414664441,0.004625533818032,0.0005239963358786,0.9929959296770252,0.0054912643576237,0.0010440651155015,0.0004222138156079,4.650390888907127e-05,-6.22705103876081,22.158283122622525,-2.893316967112495,-0.4949674666951366,7.730023254439213,8.273182135384772,-2.495381484669313,-1.1936408868173514,25.668782337033864,25.566825209249,-0.1019571277848641,0.1666666666666666,good,False,False,ambiguous_boundary,0.092491531802785,0.0116672939405344,isolated_medium,0.092491531802785,0.0116672939405344,0.1022879814326934,outlier_low_confidence,0.0255719953581733,True,9870,2.8359127656869676
25019,test,1,medium,111001,111,0.1419919325037235,0.1415183331385258,0.6683809272944927,0.1046771083724102,0.1328,0.4635708566853482,0.0,0.7553809541765436,3.3255469676791654,0.0027779713273048,0.0175717934966087,0.632538214850301,0.8650467259564889,0.0082806279314414,0.0231465669232298,0.3654480588194727,22.0,49.0,2.7,0.422589507801874,2.1601339270407363,0.0699871117723844,0.0581139074401923,0.0,0.0,0.7857142857142857,0.7295070012054619,0.0026436476549704,0.0152,0.8344275420336269,0.0015981137886191,0.0,0.0,0.6669166766694664,-0.9020280418785612,4.499105775821269,0.021617293835068,0.21908701293195,0.0200274457839402,0.1217866014059976,12.051191827745368,0.0312249799839871,0.2988782051282051,0.3606725614498444,0.843076104210052,1.3185083061493217,0.3464878576137756,4.496912521077347,0.1819203045647175,22.0,17.0,11.0,0.8489171714282099,0.0163047444075345,0.8650467259564889,0.1029279268061595,0.0213092036315458,0.0056444506878098,0.0050355694741948,0.9885951836324954,0.008405381265367,0.0019104467568835,0.0006069979089731,0.0004819574109833,-4.05234821962598,20.007786647835275,-0.4505699034779391,-1.1018361251812387,4.034949055434621,2.5249306089197945,-2.662060341811648,1.1984893186108048,20.666290529089853,21.128734484786893,0.4624439556970401,0.0666666666666666,good,False,False,ambiguous_boundary,0.1752916823485133,0.0274745954083552,isolated_medium,0.1752916823485133,0.0274745954083552,0.1077095094718353,outlier_low_confidence,0.0269273773679588,True,9820,2.8345228705861327
25332,test,1,medium,111001,111,0.1622203267144747,0.1587275872649899,0.6511399826407432,0.1172838752173498,0.1752,0.4955964771817454,0.1,0.6797487093083313,2.974183464673689,0.0025359392166137,0.0193321257829666,0.7623230645281069,0.7518968725543388,0.0105478647038346,0.0721152476175193,0.4487314446999652,16.0,30.0,1.4,0.6064265996145748,2.051678016537254,0.1125808944980987,0.122689019116061,0.0,0.0,0.3571428571428571,0.704415194489895,0.0182219184971063,0.0152,0.8920736589271417,0.0119534437334285,0.0,0.1249999999999843,0.7363483765452561,-1.0826620700634666,5.997380762913998,0.0232185748598879,0.2827961870346852,0.0251944537844133,0.1550326998339827,6.979455368079141,0.0296236989591673,0.3501602564102564,0.2203339986845819,0.79929232649278,1.2326186752296515,0.2989982612935443,2.6246692913372702,0.275887238151612,16.0,11.0,10.0,0.6926477506615011,0.0157553195953369,0.7518968725543388,0.1633404451772958,0.0646849743104943,0.017449941800974,0.002619103044781,0.9679951793659574,0.0157792835103315,0.0141132821306044,0.0017051115631191,0.0004071199064584,-5.288123541707085,17.708908892267644,-2.3352939820922,0.0527817436500805,3.913269551712261,5.362718745468946,-0.9672374794352346,-1.9017001633859216,19.59214823158176,19.488889014529864,-0.1032592170518889,0.1666666666666666,good,False,False,ambiguous_boundary,0.0922092585622883,0.0339668799397817,isolated_medium,0.0922092585622883,0.0339668799397817,0.1066208756743193,outlier_low_confidence,0.0266552189185798,True,9828,2.8342205827257017
26825,test,1,medium,111001,111,0.1759079169243084,0.166434176798941,0.6335644766688346,0.1196473848760128,0.1112,0.5996797437950361,0.1,0.7950672550499992,2.5710429168582896,0.0017765425145626,0.0096662312746047,0.5441005090122344,0.9530658680967764,0.0018010961235775,0.0113792547553907,0.2754782881149239,14.0,19.0,0.5,0.5101179546356684,1.825909120369012,0.0950888657685168,0.0272284636515624,0.0,0.0,0.2142857142857142,0.638427120126835,0.003869841440732,0.0152,1.0,0.0019256120861808,0.0,0.0,0.7380663033856357,-1.2178206227240516,3.3461042298029224,0.0376301040832666,0.1179013699410214,0.0277003418780577,0.0543098552157744,18.292172840938708,0.0064051240992794,0.2291666666666666,0.435296658246015,0.8672636836927037,1.1521859038659077,0.4367070863761031,3.681787005729087,0.2135936553235556,14.0,10.0,5.0,0.6507396738638974,0.0092973887920379,0.9530658680967764,0.0332282631759053,0.0104108002416606,0.002869434900131,0.0004255873860493,0.996320539941641,0.0021452027847966,0.0012484414651911,0.0002602524959685,2.554218616815436e-05,-6.723000410667483,22.89606999645524,-3.382343389326496,-0.8336518386589631,8.890706653344482,8.760535325408565,-3.021379724534325,-2.0157381389419498,27.12529909249237,26.949751831309264,-0.1755472611831017,0.2,good,False,False,ambiguous_boundary,0.0796951449002634,0.0095972901768912,isolated_medium,0.0796951449002634,0.0095972901768912,0.1077822732404967,outlier_low_confidence,0.0269455683101241,True,9819,2.8292261544770527
24836,test,1,medium,111001,111,0.1645629838024229,0.1586031835717118,0.7050794142484664,0.1085399714686092,0.1416,0.5588470776621297,0.1,0.98400887025003,2.547800897949988,0.0020486488938331,0.0113673705607652,0.5548688751935786,0.8861785737587343,0.0013363689025599,0.0089231289439787,0.2473009518776308,15.0,25.0,1.0,0.5313031037651909,1.2674009037828478,0.1845846734333195,0.0502393434170422,0.0,0.0,0.2857142857142857,0.7000595421949478,0.0023704430516164,0.0152,1.0,0.001177619562403,0.0,0.0,0.7419841260155247,-1.4581141522086922,4.579946392411988,0.0344275420336269,0.192224132252747,0.0251549766670185,0.0468448228954716,19.70557146483482,0.0080064051240992,0.2019230769230769,0.5829711509846177,0.8351662602591523,1.1572170032950226,0.4015558741278786,2.867441755680876,0.2585688584788905,15.0,11.0,8.0,0.7711577257638276,0.0102905467152595,0.8861785737587343,0.103192043907476,0.0080637945829808,0.0023258267424249,0.0002395383455443,0.9965623262102484,0.002344267037452,0.0008611325918349,0.000210804305958,2.14451108869608e-05,-6.539595793979562,23.381820323557434,-2.8829210321763434,-0.029473173807925,7.580391486159394,9.949948143726552,-2.557142935577386,-2.149511849524494,27.36012491986912,27.262956979778217,-0.0971679400909053,0.2,good,False,False,ambiguous_boundary,0.0935265336846067,0.0095031990967256,isolated_medium,0.0935265336846067,0.0095031990967256,0.1139875799774181,outlier_low_confidence,0.0284968949943545,True,9778,2.7948167834071582
26806,test,1,medium,111001,111,0.1707262441665157,0.1633834887989074,0.7710755698382854,0.1121244888829533,0.1432,0.5820656525220176,0.1,0.9661083893147768,2.5086165773557467,0.0019849501550197,0.0113580107688903,0.5722034641434559,0.9015587793851056,0.0018229337002627,0.0133969479946071,0.2811740291000204,13.0,21.0,0.8,0.5306364675635364,1.662863745295566,0.0878640387960103,0.0355810669138228,0.0,0.0,0.1428571428571428,0.6866774646216536,0.0039493939777726,0.0152,1.0,0.0019756246275836,0.0,0.0,0.741037054224524,-1.6882984598147508,5.770690536372387,0.0376301040832666,0.1575204365873536,0.026694171144433,0.0537258475050435,17.36708194954505,0.0064051240992794,0.2219551282051282,0.4728561126712479,0.8403360072284758,1.1417202960833863,0.4594494655549393,3.741657386773941,0.2108967220595339,13.0,10.0,4.0,0.7864020101330899,0.0113501667976379,0.9015587793851056,0.0826315508518887,0.0122358944301763,0.0032406690617327,0.0003330084585387,0.9951706369902472,0.0033446716497808,0.0011600876960281,0.0002923106048425,3.2269990589034e-05,-6.645255431792027,22.504673337538392,-3.5660850510070428,-1.1487776539695629,8.276205749739654,8.900342686486972,-2.8580898286188905,-1.8015947360504967,26.622211531145897,26.46080153135885,-0.1614099997870433,0.2,good,False,False,ambiguous_boundary,0.0824237862250658,0.0101618366578848,isolated_medium,0.0824237862250658,0.0101618366578848,0.1091230711328565,outlier_low_confidence,0.0272807677832141,True,9808,2.794522573648343
26824,test,1,medium,111001,111,0.1545429261028058,0.1487588449741423,0.6472742989659309,0.1044045967399841,0.1344,0.5260208166533227,0.1,0.8446663444218593,2.6622948422248456,0.0022683069109916,0.0121632426977157,0.5362232516442405,0.9155143813289376,0.003535099894049,0.0240085739925774,0.3295080473362995,14.0,21.0,0.7,0.658363525428736,1.7723614582387806,0.1230352006762841,0.0464891679881926,0.0,0.0,0.2142857142857142,0.6658288716308843,0.0092978643613352,0.0152,0.9468374699759808,0.0047644079608587,0.0,0.1249999999999843,0.7336491447115413,-1.3657552071528216,4.357824659901455,0.0280224179343474,0.1768454942769957,0.0221292009828641,0.0802407896512563,12.147050874430754,0.0080064051240992,0.2644230769230769,0.456200942577412,0.8629443716646564,1.178575195165467,0.4335259380203893,2.867441755680876,0.2585688584788905,14.0,11.0,7.0,0.60076951181224,0.0127086732536553,0.9155143813289376,0.0558184540135818,0.0218872895260605,0.006069359165131,0.0007097757636931,0.9893777784884294,0.007450025271563,0.0024812324621814,0.0006060879237459,8.484783149344788e-05,-5.993644569742651,21.04072482271456,-3.21253957752262,-0.2194748528348421,5.788096225640318,7.451940432221578,-1.7499372545801966,-1.3572502811249438,23.86533571052396,23.73383213266081,-0.1315035778631497,0.1333333333333333,good,False,False,ambiguous_boundary,0.0876928867143394,0.015054572826496,isolated_medium,0.0876928867143394,0.015054572826496,0.0891393802534186,outlier_low_confidence,0.0222848450633546,True,9985,2.776379867407774
26878,test,1,medium,111001,111,0.1693220341335378,0.165246488828049,0.5991056367754937,0.1326737861175322,0.0896,0.6164931945556446,0.1,0.6890221819096666,2.5845970558621763,0.0017319545149803,0.0085498206550255,0.4936487197673734,0.8508390570981452,0.0060887094270584,0.0394411628147485,0.3677661103379495,13.0,19.0,0.6,0.5418888003866454,1.560079014067621,0.118608427434473,0.0345252709358335,0.0,0.0,0.1428571428571428,0.6590210866397249,0.0133579527522115,0.0152,1.0,0.0066611864257555,0.0,0.0,0.7380906591131062,-0.7324909301779917,2.5652761836720046,0.0288230584467574,0.1816344565318391,0.0273064087650688,0.0598363970021406,16.19162633522578,0.010408326661329,0.2636217948717949,0.4355424634163651,0.9091707192208072,1.1798422913367614,0.4804652825808001,2.867441755680876,0.2585688584788905,13.0,10.0,6.0,0.8587039994651577,0.0078180252574384,0.8508390570981452,0.1018602113536671,0.0358581942830186,0.0102998371255867,0.0011394546284832,0.9938736054334312,0.0043565189449286,0.0013807427360892,0.0003472991741931,4.181050778573053e-05,-6.348792779262862,21.294990443689027,-3.4098308907450265,-0.8380200239951323,7.511283546068439,7.660439395436909,-2.7255825089556,-2.7768129670958297,24.967069335681348,24.778849266974795,-0.1882200687065527,0.2,good,False,False,ambiguous_boundary,0.0773428678961234,0.0125141136620248,isolated_medium,0.0773428678961234,0.0125141136620248,0.1073071132856604,outlier_low_confidence,0.0268267783214151,True,9822,2.7692105694741653
26795,test,1,medium,111001,111,0.1542592357836133,0.1465903262585016,0.6279570804536343,0.0917863319879412,0.2024,0.5820656525220176,0.1,1.0533850927087272,2.5958838787318945,0.0019319772254675,0.0094421565532684,0.4887276907839447,0.934552283104236,0.0022469997523957,0.0163174198545709,0.3006557383839892,15.0,24.0,0.9,0.5592049837332013,1.2149999335975288,0.0880173445366917,0.0398322080241572,0.0,0.0,0.2857142857142857,0.6573358083988005,0.004802517107549,0.0152,1.0,0.0023191153885415,0.0,0.0,0.7489177330815138,-1.8845272750630355,5.888478962819718,0.0368294635708566,0.1517804274365355,0.0214887308207675,0.0615980272297471,15.497465932305271,0.0152121697357886,0.2572115384615384,0.4974891623839071,0.8007033281235453,1.159557173817465,0.3925513281952433,3.741657386773941,0.2108967220595339,15.0,12.0,6.0,0.653610578998413,0.0089742541313171,0.934552283104236,0.0461830804348302,0.0149555085300036,0.0038542829763861,0.0004540757036806,0.9940439054368192,0.0041463376697276,0.0013067680510558,0.0004719666793868,3.099423248805876e-05,-6.087007195130895,22.55730208741528,-3.123677024045009,-0.693194413185638,7.459101288295568,9.055985569230144,-2.386182578418774,-0.4487577279655103,26.14435083242136,26.08888089647194,-0.0554699359494144,0.1666666666666666,good,False,False,ambiguous_boundary,0.1017124576590139,0.0109145652992096,isolated_medium,0.1017124576590139,0.0109145652992096,0.1062868523397315,outlier_low_confidence,0.0265717130849328,True,9833,2.744488776607075
26804,test,1,medium,111001,111,0.1704596345187033,0.1580374387860791,0.601765368282795,0.0938416301896388,0.3952,0.6765412329863891,0.2,1.1827953528916122,2.302470228108483,0.0015027476474642,0.0139110058546065,0.9256985567885652,0.849882220713807,0.003020095433272,0.0209960772727275,0.3386163732169321,16.0,20.0,0.4,0.3094203554799549,0.7889412734826985,0.1203728513130643,0.0252684196768302,0.0,0.0,0.3571428571428571,0.6484982018488945,0.0046404383524371,0.0152,1.0,0.0028060563810909,0.0,0.0,0.804977380563574,-1.7645666901395145,4.879856399858941,0.0496397117694155,0.1839408058642112,0.024975838897315,0.0526705338705658,17.33315468917015,0.0144115292233787,0.2604166666666667,0.47453613142298,0.7764543851810249,1.1602722318229155,0.4699727066494165,2.943920288775949,0.2535548202751237,16.0,11.0,9.0,0.7664852611735986,0.0118853156454861,0.849882220713807,0.1253675928961806,0.0193632280440993,0.0043583099226093,0.0010267292703381,0.9955821966378848,0.0030593196160186,0.0010353302736076,0.0003021853967102,2.094583479454471e-05,-6.9656574253565,23.21424656704068,-3.627876035034776,0.2655192676154903,9.61749988272022,13.936067227000896,-0.7950505704346514,-3.7172924933286167,29.804480862085097,29.59044306702333,-0.2140377950617669,0.3,good,False,False,ambiguous_boundary,0.0723560406473466,0.0074331953330824,isolated_medium,0.0723560406473466,0.0074331953330824,0.1390468573579224,outlier_low_confidence,0.0347617143394806,True,9625,2.741304771263442
26811,test,1,medium,111001,111,0.1723172694799994,0.1651031105587866,0.7933523662388324,0.1061007461167968,0.192,0.5164131305044035,0.1,0.8360594545647386,2.548093714216448,0.0023514330387115,0.0133037030696868,0.5657676095346338,0.9177580075954866,0.0028723318469171,0.0206418865186065,0.3186175525376779,15.0,20.0,0.5,0.7152431246855976,1.710583972533903,0.1103082674036422,0.0463007798983939,0.0,0.0,0.2857142857142857,0.6670744458016045,0.0098426449419824,0.0152,0.9295436349079264,0.0049881106311373,0.0,0.3333333333333055,0.7333528576303715,-1.748236439334829,5.873715672665959,0.0224179343474779,0.1667283525970193,0.0272590438141248,0.0746112175873406,12.897326518974422,0.0136108887109687,0.2708333333333333,0.4765261654229922,0.7966941416787154,1.1731978377557566,0.4065837198629877,3.681787005729087,0.2135936553235556,15.0,11.0,6.0,0.7922413849110443,0.0113254085183143,0.9177580075954866,0.0578137004909833,0.018664168887993,0.0052132934912384,0.0005499777925987,0.9905539897584258,0.0062183522837822,0.0025763569657232,0.0005995922318467,5.168609074149188e-05,-6.110422835600288,20.89118223506715,-2.7188177015443307,-0.1308378114847088,6.352168972718425,7.4361480681206995,-2.155708668609153,-1.3626577637504214,23.85541132825185,23.72591580880056,-0.129495519451293,0.1333333333333333,good,False,False,ambiguous_boundary,0.0881633421151674,0.0151486639066616,isolated_medium,0.0881633421151674,0.0151486639066616,0.0893699033998243,outlier_low_confidence,0.022342475849956,True,9983,2.7309905940505335
25026,test,1,medium,111001,111,0.1477389248105615,0.1476207517319404,0.5882433193922043,0.1106714734958019,0.2208,0.4803843074459568,0.1,0.5919268870642677,2.8884173316106034,0.0026713013648986,0.0188110813498496,0.7041890210564485,0.9214883305443048,0.0031104949868462,0.0153484837790496,0.2562006667197861,18.0,39.0,2.1,0.5167869966173487,2.015576961591805,0.0600417177087154,0.1593624250156007,0.0,0.0,0.5,0.6091152089961279,0.0025586763983242,0.0152,0.8646917534027222,0.0015246900866927,0.0,0.0833333333333263,0.7266452841610029,0.0208773766700604,3.020130089406312,0.0248198558847077,0.182909302969159,0.0217918933894882,0.1055536307507364,12.584333353981911,0.0312249799839871,0.2764423076923077,0.3838901738655143,0.8546683110620398,1.252433850705618,0.2508627054063677,4.027681991198191,0.1988988169400271,18.0,17.0,9.0,0.919882890908432,0.0161344213644042,0.9214883305443048,0.0595728368218057,0.0139744938102682,0.0037536339793691,0.0012034037468262,0.9875967324620728,0.0078370897530933,0.0037361410705319,0.0005480439487005,0.0002819622160538,-4.733358514824778,20.448279502256835,-1.9050089298614763,-0.6042945265844539,6.686555220322738,6.308420039912088,-2.359096422629789,-1.6287102669058495,22.83860177449398,22.969869632407875,0.1312678579138939,0.1,good,False,False,ambiguous_boundary,0.1326684230334964,0.0175950319909672,isolated_medium,0.1326684230334964,0.0175950319909672,0.0982197967632668,outlier_low_confidence,0.0245549491908167,True,9899,2.7174707902874733
24814,test,1,medium,111001,111,0.1621899743705979,0.1595315795557422,0.6802690534293652,0.120022352495334,0.1968,0.611689351481185,0.2,0.5842158660082046,1.8105853135233283,0.0017282366752624,0.0116515934467315,0.6741857868734008,0.921512245513868,0.0007279934766993,0.0046520963924506,0.3561954106118358,12.0,20.0,0.8,0.4250489672195426,1.9242341375173253,0.4563296295783884,0.0245122701201792,0.0,0.0,0.0714285714285714,0.6790231807752093,0.0010985382038982,0.0152,1.0,0.0004944651759149,0.0,0.0,0.7663200081769396,0.6480652044751953,2.948173487925962,0.0376301040832666,0.1911457166826167,0.0254503316849186,0.0392226288063573,20.21950580898504,0.0176140912730184,0.1778846153846154,0.6204605011033922,0.8973543412787233,1.1051989697165925,0.2532562355806095,2.0548046676563256,0.3273531727209285,12.0,9.0,7.0,0.746970423080319,0.0109131094068288,0.921512245513868,0.0729119788223149,0.0042133212009193,0.0011761469471448,0.0001845993522699,0.9973226180554834,0.0020962743772546,0.0004634768358835,0.000106428534586,1.117698951994405e-05,-8.291336252127135,24.362284699460503,-3.577854118756944,5.510339389844399,7.175837793347157,14.46648680053494,-0.0916336383048308,-6.424142506696235,31.65954427490484,31.12072383244764,-0.5388204424572045,0.3,good,False,False,ambiguous_boundary,0.0353782461422657,0.0063041023710952,isolated_medium,0.0353782461422657,0.0063041023710952,0.1221810312382385,outlier_low_confidence,0.0305452578095596,True,9723,2.6920962631061007
24290,test,1,medium,111001,111,0.1700134994717452,0.163583262556395,0.776228201687336,0.1194882090692874,0.0848,0.5060048038430744,0.1,0.8095299637843363,2.6164082818566934,0.0024795904755592,0.0230371177196502,0.9290657082348954,0.8701521101174307,0.0025320159784377,0.0155991824065417,0.3248446310549173,13.0,43.0,3.0,0.8880082097823774,1.4698060239394093,0.0955917640662257,0.2937562920580985,0.0,0.0,0.1428571428571428,0.697589200810175,0.0034630505107254,0.0152,0.910808646917534,0.0022182524842534,0.0,0.0,0.7428739897321144,-1.3330949120236368,4.610286989020754,0.0256204963971176,0.2391064229370895,0.0267594905169293,0.0706592798559103,13.701027770886814,0.0120096076861489,0.3493589743589743,0.5612669718522927,0.8072721591160058,1.2818511612900034,0.4721696128892806,2.0548046676563256,0.3273531727209285,13.0,11.0,8.0,0.8054716481671558,0.0130680680274963,0.8701521101174307,0.1111072045361452,0.0139832315786978,0.0041008020156892,0.000653924537444,0.9933586366421632,0.0037214863344101,0.0023570830046899,0.0005022168002732,6.055395162167014e-05,-5.336516382733205,20.23472907966519,-3.169259460151271,-1.912425719986762,6.071146177818179,7.597445955975652,-2.899566209801917,-2.7790358453312063,23.381691989596927,23.4174724907593,0.0357805011623746,0.2333333333333333,good,False,False,ambiguous_boundary,0.1172374858863379,0.0165600301091456,isolated_medium,0.1172374858863379,0.0165600301091456,0.1377355413373478,outlier_low_confidence,0.0344338853343369,True,9630,2.65922234519295
29491,test,1,medium,111001,111,0.1561333093233889,0.1561063250004486,0.7507067653536794,0.122738157241093,0.0752,0.3923138510808647,0.0,0.5006397984569252,2.900990402213907,0.0032865181565284,0.0205018542706966,0.6238149589551224,0.6336596534459037,0.0395478662666623,0.1578631052413447,0.5708166229655683,17.0,38.0,2.1,0.8869505019481448,3.384549533731534,0.0649439041139357,0.1411444859265377,0.0,0.0,0.4285714285714285,0.6750829541891326,0.0451666969138398,0.0152,0.7252476005534767,0.0322930853659821,0.0,0.7499999999999063,0.6346971496034197,-0.0651270778364481,4.017256991326054,0.0184147317854283,0.4245103213117225,0.0243691915830193,0.2284536654804292,4.726605628433594,0.0128102481985588,0.4511217948717949,0.2841131372686772,0.8308731666852509,1.3499873340876425,0.4921690107137462,2.867441755680876,0.2585688584788905,17.0,13.0,10.0,0.6038645810882615,0.0132872113958001,0.6336596534459037,0.1586409176317093,0.1369612397102906,0.0625002414379835,0.008234215335621,0.9394254907784638,0.033411762240225,0.0193158377625756,0.0069434690665986,0.0009034126117556,-4.510828442831492,14.49845134266392,-1.7671252105418938,-0.2017283125298129,0.8338455222144805,-1.009919346608119,-1.262611998438348,-0.626454629508621,15.087359444854266,15.024485315516475,-0.0628741293377892,0.1,good,False,False,ambiguous_boundary,0.0996424538953707,0.0784719608581106,isolated_medium,0.0996424538953707,0.0784719608581106,0.0955334964245389,outlier_low_confidence,0.0238833741061347,True,9923,2.6576849646579577
25076,test,1,medium,111001,111,0.1943826841104246,0.1864750560935128,0.5891595041751861,0.1717511407262645,0.0248,0.4579663730984787,0.1,0.407490698324229,2.502139117435232,0.0032038241624832,0.0222421571612358,0.6942355950158307,0.832737570614101,0.0035621385106445,0.0194351941263106,0.3792747866415625,17.0,39.0,2.2,0.6161301075090307,1.513682943670125,0.1392693403755793,0.1316352313023622,0.0,0.0,0.4285714285714285,0.6383966723252544,0.003742065077032,0.0152,0.8243394715772618,0.0020549447189272,0.0,0.0,0.739813148629586,0.2454175320208157,1.5367527198486937,0.0168134507606084,0.2666810055316425,0.0347729528155777,0.0586291248813135,17.653858377534178,0.0056044835868694,0.3493589743589743,0.6101854634884021,0.8936542633643286,1.2870485758296513,0.3437671545134262,3.39934634239519,0.2273064955953337,17.0,11.0,9.0,0.7418690001228077,0.0156156197190284,0.832737570614101,0.1435043106322164,0.0175080295275205,0.0050124996526055,0.001232932668611,0.9934199250856988,0.0050006349741186,0.0012466072534542,0.0002900871591073,4.272806710650892e-05,-5.549705775404079,20.214735407375503,-1.4793970373236616,-0.5714493353630657,8.020710298381921,5.691899714675276,-3.440518350458836,-5.791926761478822,23.84922508872736,23.828818428304704,-0.0204066604226547,0.1333333333333333,good,False,False,ambiguous_boundary,0.1075461046292811,0.0152427549868272,isolated_medium,0.1075461046292811,0.0152427549868272,0.0981109647472086,outlier_low_confidence,0.0245277411868021,True,9902,2.644116871365825
24849,test,1,medium,111001,111,0.1716603961640177,0.1630585810079895,0.5988539607822895,0.1138918574448965,0.152,0.5508406725380304,0.1,0.8828913898725234,2.3044219643686783,0.0021882355213165,0.0125184938311576,0.5720790336006759,0.8487092299312305,0.001403204726804,0.0099521994698903,0.2868315404215218,16.0,27.0,1.1,0.6387779042755014,1.1305440203338415,0.1910549874007492,0.0809820443457554,0.0,0.0,0.3571428571428571,0.7140754445455295,0.0030272595810992,0.0152,0.9915132105684548,0.0014370089721738,0.0,0.0,0.7687715227136503,-1.2492596332307202,3.3868265692834782,0.0336269015212169,0.253667444653586,0.0265881075791675,0.0499030168063889,19.815386204213443,0.0144115292233787,0.1971153846153846,0.5481712106823179,0.8608390052882695,1.153611387029572,0.3011556705612354,3.741657386773941,0.2108967220595339,16.0,10.0,7.0,1.1298657110060235,0.0120065867900848,0.8487092299312305,0.1394866748580435,0.0091067892700659,0.0023038397875246,0.0003917500447083,0.9957224473860378,0.0034633144623603,0.0006335934857517,0.0001576558823172,2.296595552061174e-05,-6.263675266337019,22.963416413219903,-2.557703644937975,0.3998842821436001,7.7091519943764,9.290058291109094,-2.496821106138074,-2.474892132441873,26.75277175820397,26.65974308137323,-0.0930286768307411,0.2,good,False,False,ambiguous_boundary,0.0939969890854347,0.0100677455777192,isolated_medium,0.0939969890854347,0.0100677455777192,0.1143121942039894,outlier_low_confidence,0.0285780485509973,True,9773,2.6382749895046818
25334,test,1,medium,111001,111,0.1639613386417968,0.1572722646647462,0.6634581667184829,0.104323519719229,0.2048,0.5596477181745396,0.0,0.9889525912229348,2.609488767541116,0.00210702419281,0.0126279234886169,0.5993221909595894,0.8709915639534265,0.0016016712568807,0.0114910385796526,0.3295571976178215,20.0,37.0,1.7,0.3286985851070637,0.9776144848302358,0.1524969357466352,0.0406757412087741,0.0,0.0,0.6428571428571429,0.6873318506457547,0.0013989215268675,0.0152,1.0,0.0007282922676166,0.0,0.0,0.7469925910479539,-1.5101321511231192,4.629781380762434,0.0248198558847077,0.1824796307631778,0.0247345720873327,0.0502065780182238,18.698974358185897,0.0152121697357886,0.2572115384615384,0.5357458455670931,0.8349964484860295,1.1811474718852506,0.2826767331800135,2.943920288775949,0.2535548202751237,20.0,15.0,13.0,0.9858729453606262,0.0125229215249419,0.8709915639534265,0.1153164132563689,0.0105234090720827,0.0027973542970365,0.0003697116912956,0.995786192265354,0.0029151377264955,0.0010634938126985,0.0002172816836192,1.786956970523131e-05,-5.1970932662019695,22.29042298001614,-1.0769606827490557,-0.4664566450513481,5.492374614231281,6.054773210262415,-4.08133976709375,1.5854400275987703,24.267747783914675,24.503596245911822,0.2358484619971506,0.0666666666666666,good,False,False,ambiguous_boundary,0.1464998118178396,0.0137372977041776,isolated_medium,0.1464998118178396,0.0137372977041776,0.0920057081921966,outlier_low_confidence,0.0230014270480491,True,9958,2.633700599037187
26813,test,1,medium,111001,111,0.1801250772602466,0.1654234189306233,0.6229002176225186,0.1103925831553991,0.2856,0.5612489991993594,0.2,0.931656770496909,2.077508627256052,0.0019681807607412,0.0117106199264526,0.5949941519917678,0.9584490110787968,0.0015679813597157,0.0111643136343277,0.273244951306873,13.0,21.0,0.8,0.711312737802274,2.23481189477324,0.1157682326417898,0.0328699809089867,0.0,0.0,0.1428571428571428,0.6484984837283138,0.0044118436093982,0.0152,1.0,0.0020157531910558,0.0,0.0,0.7478629398329105,-1.378927452300204,3.646840076456572,0.0376301040832666,0.128554506875322,0.0273649142222282,0.0560352114413527,16.634800912220808,0.0184147317854283,0.2403846153846154,0.4938588720605742,0.8260924989752625,1.1497728568066268,0.5329394235295596,3.741657386773941,0.2108967220595339,13.0,10.0,4.0,0.7036315497566418,0.0109614640474319,0.9584490110787968,0.0283356944934187,0.0102588453009549,0.0026747334571656,0.0002817053481413,0.994776322634314,0.0039270020865708,0.0010438839115555,0.000229416770987,2.335386602205107e-05,-6.93240903643791,22.75041803604351,-3.7823935020519217,-0.0553778214133861,9.848378847536118,12.949288779650342,-1.5526256566506185,-4.360748099308433,29.22030880458864,28.97560179386583,-0.2447070107228057,0.3,good,False,False,ambiguous_boundary,0.0664283025969138,0.0078095596537448,isolated_medium,0.0664283025969138,0.0078095596537448,0.1364546480993601,outlier_low_confidence,0.03411366202484,True,9643,2.620255603478741
25378,test,1,medium,111001,111,0.2007426339914826,0.1972043061859496,1.0253870227932929,0.1487731207666918,0.1384,0.3931144915932746,0.1,0.5786376935173018,2.4570218587275505,0.0042679384350776,0.0410934820771216,0.9628392353426796,0.6227998591509291,0.0034372920102417,0.0550607545401969,0.5300079853246744,20.0,46.0,2.6,0.5296960249435952,1.9665354098010293,0.1354641858329912,0.1212695042490274,0.0,0.0,0.6428571428571429,0.7533831540918945,0.0081015174473159,0.0152,0.7076060848678943,0.0051638703638415,0.0,0.076923076923071,0.866308266786777,-0.3107751708832272,4.659372741439452,0.0168134507606084,0.443011883633124,0.0388895444341957,0.1129399550865635,7.722659569628372,0.0248198558847077,0.3533653846153846,0.5232551661474679,0.7921133850721948,1.2495603509630244,0.1995080371619977,3.858612300930076,0.2058200856669653,20.0,18.0,11.0,0.6935981310281376,0.0403514325618744,0.6227998591509291,0.3174621560102041,0.0521644105024854,0.0063832052027334,0.0011845499907148,0.9693653778881792,0.0256942924223384,0.0042278982550639,0.0006107602567133,0.0001016552002,-4.827833279089039,15.982913268011355,-0.2800514117368793,0.9457151946707332,3.7797006646578746,3.332367030669888,-0.8726318874516078,-5.23289770107205,17.893272992737646,17.899189179236714,0.0059161864990677,0.1,good,False,False,ambiguous_boundary,0.1114038389160707,0.0482687241249529,isolated_medium,0.1114038389160707,0.0482687241249529,0.0947854723372224,outlier_low_confidence,0.0236963680843056,True,9930,2.6100408927509706
26728,test,1,medium,111001,111,0.1451075178618921,0.1434117792898759,0.6702101972699165,0.0937288080103462,0.2096,0.4411529223378703,0.1,0.8667935681505684,2.623733776332008,0.0028760880231857,0.0150359138846397,0.5227886450123527,0.8601697019679975,0.0057971098870065,0.0428310306792895,0.3566363902774946,16.0,33.0,1.7,0.7640171522945791,2.412886960920343,0.0874499008065072,0.0701892744976156,0.0,0.0,0.3571428571428571,0.6980157661064784,0.0121198674405305,0.0152,0.7940752602081665,0.0062086049733907,0.0,0.444444444444395,0.7522694694926004,-1.425810995770465,5.110677618765436,0.0192153722978382,0.2320071754290091,0.0205669455708525,0.1126348010403535,8.51476537586428,0.0304243394715772,0.2916666666666667,0.4104065365778553,0.8042487084126805,1.1969029309930732,0.4907332277362371,2.449489742783178,0.2898979485566356,16.0,13.0,10.0,0.9576159201951968,0.0111627038568258,0.8601697019679975,0.0895526065232114,0.0393640217710753,0.0097557562528391,0.0011555734538657,0.9737449316983808,0.018207549012586,0.00667962196178,0.0012178782116304,0.000149987350008,-5.051793200802527,19.169551157664863,-2.6914102156162474,-0.6631924507330641,3.81430685520103,5.965273201660984,-1.2295758516276545,-1.6655986755407954,20.99307279687072,21.03352166127574,0.0404488644050182,0.1333333333333333,good,False,False,ambiguous_boundary,0.1183665788483251,0.0253105005645464,isolated_medium,0.1183665788483251,0.0253105005645464,0.1049937272613222,outlier_low_confidence,0.0262484318153305,True,9840,2.608226749993421
24631,test,1,medium,111001,111,0.1306692600454531,0.1282258509263047,0.639135166555643,0.0756754388279398,0.1688,0.5620496397117695,0.0,1.0909530010218549,2.738760246334789,0.0021172650158405,0.0196746706962584,0.9292449279881532,0.7920699437823634,0.0089128014508378,0.051127939998566,0.4617599066620558,19.0,38.0,1.9,0.7277541789189862,1.5585723634266773,0.0952956479461768,0.0942212060359141,0.0,0.0,0.5714285714285714,0.6948292745777008,0.0128305420667157,0.0152,1.0,0.0087300157753598,0.0,0.2222222222221975,0.7521127867050852,-2.1746682080048734,7.917693309368849,0.0272217774219375,0.6475254399047454,0.016441876281258,0.1098860396365895,8.935232198859316,0.0168134507606084,0.2427884615384615,0.4511690143334088,0.7638879987684886,1.2315991677459968,0.5266097639402435,3.2998316455372216,0.2325672450543258,19.0,16.0,11.0,0.6602278251729236,0.0139312222599983,0.7920699437823634,0.1456557406212102,0.0465445447237772,0.012887307700127,0.0028306759899263,0.9811934518431744,0.0115435079265792,0.0058879881017247,0.0012831943404992,9.182304114408428e-05,-4.583549963743159,18.038822298784275,-1.3567238098113092,-0.3186927827965844,1.653000078567693,3.4483267053448987,-1.1402252767080414,3.2036090897965948,18.879954569225166,19.129158197604696,0.2492036283795293,0.0666666666666666,good,False,False,ambiguous_boundary,0.1486639066616484,0.0388596161083929,isolated_medium,0.1486639066616484,0.0388596161083929,0.0980040145527536,outlier_low_confidence,0.0245010036381884,True,9904,2.606222235735504
25435,test,1,medium,111001,111,0.167432496637412,0.1671356413999145,0.562082343697548,0.1390620966556889,0.1184,0.6429143314651722,0.1,0.5383160747207432,1.95720179380023,0.0017658621072769,0.0083002693951129,0.4700379693925012,0.9190018561071988,0.0013564979942821,0.0079720851505005,0.3231763816934321,12.0,20.0,0.8,0.3716805427421168,1.781942337111759,0.2076445687888026,0.0180334847736772,0.0,0.0,0.0714285714285714,0.6604272647645897,0.0016461494086246,0.0152,1.0,0.0006556275478217,0.0,0.0,0.6830624764292693,-0.1727097080352608,2.002173516967068,0.0376301040832666,0.1312698557385105,0.027934329283448,0.0349396022755444,26.35125577358486,0.0128102481985588,0.2331730769230769,0.5428932300924192,0.9445676793452064,1.1428472032502133,0.2568398243029722,2.494438257849294,0.286169028098801,12.0,8.0,6.0,1.0029274556797303,0.0083882577717304,0.9190018561071988,0.0712472702789586,0.0071543494843153,0.0022575700444842,0.0003385179076613,0.9984226698403104,0.0010059038832673,0.000418887294862,0.0001449527669057,7.562399213786035e-06,-7.248215125995453,24.504869812582104,-4.016839870599969,0.362450117200338,9.715205513852462,10.58963685196705,-4.218379971868016,-4.285685776996552,30.00965607650693,29.71933534920324,-0.290320727303694,0.3,good,False,False,ambiguous_boundary,0.0585246518630033,0.0072450131727512,isolated_medium,0.0585246518630033,0.0072450131727512,0.1327850959729017,outlier_low_confidence,0.0331962739932254,True,9666,2.598563122182042
24817,test,1,medium,111001,111,0.1472749853498548,0.1459307901713604,0.6466014559566975,0.108075091396796,0.1528,0.7077662129703763,0.2,0.7196180529948788,1.9169106377493983,0.0015564486384391,0.0094731584191322,0.6086354102304922,0.909831274053608,0.0019440361762646,0.0106613590388097,0.3103180544731494,12.0,23.0,1.1,0.4086223114388529,1.7024544025518311,0.2293019842967687,0.2505235829967978,0.0,0.0,0.0714285714285714,0.7342623314761422,0.0020745091302466,0.0152,1.0,0.0009219909226046,0.0,0.0,0.7846410842525926,0.4344692842326703,3.291835144223936,0.032826261008807,0.1753481197610893,0.0212958026014219,0.0409265950197429,21.13887566413761,0.010408326661329,0.1618589743589743,0.5315014039732253,0.8597918425120095,1.1287526430973651,0.3473259576299876,2.160246899469287,0.3164309725825327,12.0,8.0,7.0,0.6421680462582647,0.0058789551258087,0.909831274053608,0.077168805554182,0.0097900573529712,0.0025376495598595,0.000667598841008,0.9959977167996829,0.0032918652413174,0.0005765767284836,0.0001214985346648,1.231233998442534e-05,-7.3072817145398945,23.56944128356939,-4.191448642764085,0.923373930040656,8.724315048773002,14.319718939116964,-1.295475118895936,-5.708655081069559,30.52212999088308,30.22265032729465,-0.2994796635884285,0.3,good,False,False,ambiguous_boundary,0.0575837410613473,0.00705683101242,isolated_medium,0.0575837410613473,0.00705683101242,0.1323240496800903,outlier_low_confidence,0.0330810124200225,True,9669,2.5770261419937945
26325,test,1,medium,111001,111,0.1657967523192585,0.1583633253569198,0.6873474745452403,0.1140004707425348,0.1512,0.3482786228983187,0.0,0.7756266056048131,2.68774835020434,0.003884058445692,0.0497255381196737,1.2802436109184896,0.733255295259899,0.0169302592696434,0.0834415045981266,0.4751437778985407,22.0,50.0,2.8,0.5900199209647543,2.3215906397796493,0.0637861509414467,0.0944928731104455,0.0,0.0,0.7857142857142857,0.7331612201643308,0.0129558289337281,0.0152,0.7,0.0107452657789851,0.0,0.8571428571427346,0.6868465156802838,-0.9882863653808728,3.496770864498856,0.0184147317854283,0.3395229503389932,0.0250789496508352,0.1539077988590988,7.928123736974044,0.0248198558847077,0.3020833333333333,0.4930717464488607,0.8416848300061297,1.4036297624488618,0.3216981809386491,4.496912521077347,0.1819203045647175,22.0,16.0,11.0,0.9697436797504492,0.0310754936188459,0.733255295259899,0.1619545595472725,0.0755709427190928,0.0250499679118307,0.0041445250892353,0.9732662047973888,0.0181346888210573,0.0055166550602663,0.0027428478435788,0.0003395788178288,-3.9254102035974414,17.170057974988207,-0.184044367322227,-0.6657133218050089,2.4635764704867755,0.2896504647879027,-1.4739406844976783,-0.1840890478070779,17.32804124578802,17.751706573660424,0.4236653278724027,0.0,good,False,False,ambiguous_boundary,0.1709634926608957,0.0539141889348889,isolated_medium,0.1709634926608957,0.0539141889348889,0.0877164094843808,outlier_low_confidence,0.0219291023710952,True,10000,2.5505097656503057
25196,test,1,medium,111001,111,0.1475005064093383,0.146650047050996,0.8268806490302085,0.0975419491304666,0.1784,0.5476381104883907,0.1,0.8563936110124488,2.4798641602053104,0.0020955801010131,0.0168013483285903,0.8017478380178998,0.8703842805056139,0.0024525403731627,0.0196768171506202,0.3488504910417274,19.0,38.0,1.9,0.6161143189565795,1.7981209199268362,0.0931390585667195,0.0919484297570482,0.0,0.0,0.5714285714285714,0.6502054834502431,0.0041804030337888,0.0152,0.9857485988791034,0.0024235443054158,0.0,0.0,0.7517384529105436,-1.4250205726061365,6.47191971906012,0.0232185748598879,0.2292462653238598,0.0215062433670585,0.0822592007376999,13.20873361487686,0.0112089671737389,0.2580128205128205,0.4024088389460412,0.7854804725443617,1.1895719604444217,0.3114097133409045,2.8284271247461903,0.2612038749637414,19.0,13.0,13.0,0.5969936224350848,0.0103569149971008,0.8703842805056139,0.1066060993119307,0.0175261241729152,0.0046666562514818,0.0008098509207458,0.9848945289476544,0.0126503535024602,0.0018184062614581,0.0005070644516245,0.0001296159239621,-5.087627729058337,20.19636752244676,-1.5965691808730136,-0.6453871904263012,5.904132842713713,8.179436595503514,-2.2293994385013454,-0.5669924162937892,22.915444945823445,23.07250375545376,0.1570588096303105,0.2,good,False,False,ambiguous_boundary,0.1363379751599548,0.0172186676703048,isolated_medium,0.1363379751599548,0.0172186676703048,0.1347958223560406,outlier_low_confidence,0.0336989555890101,True,9652,2.5424136979329144
25014,test,1,medium,111001,111,0.1697628016127381,0.1627085148442601,0.639723416119814,0.1260265272068791,0.14,0.6613290632506005,0.0,0.6647680769131367,2.123306028441921,0.0016530603170394,0.012060600623954,0.72958787654923,0.8552320104929744,0.0020019760006216,0.0127374071515161,0.3596930905927992,14.0,27.0,1.3,0.2403301299668898,1.0955742110988862,0.0960073826713028,0.0251504389401627,0.0,0.0,0.2142857142857142,0.695132654406704,0.0013309490070282,0.0152,1.0,0.0006802250086754,0.0,0.0,0.7448363449460189,-0.9098005695200596,3.135454663344581,0.0336269015212169,0.1801715893301007,0.0264740675486546,0.0424408531058145,21.48278334115624,0.010408326661329,0.2435897435897435,0.5357180303864645,0.8953209623666458,1.1686983859597526,0.3484872780777451,2.449489742783178,0.2898979485566356,14.0,11.0,8.0,0.7927865410472755,0.0105915784835815,0.8552320104929744,0.1295486470016335,0.0114643328770275,0.0032449586840437,0.0005074038054413,0.9967364193680402,0.0022872284605656,0.0008239746366225,0.0001338575983391,1.849667587853923e-05,-6.145753228662019,21.948492616733983,-3.340091058273656,-1.328918333142534,6.661527597202194,5.911079932723688,-5.006954564521864,-0.1612126588742831,24.93461563823861,24.83675679896097,-0.0978588392776416,0.1666666666666666,good,False,False,ambiguous_boundary,0.0932442604441099,0.0126082047421904,isolated_medium,0.0932442604441099,0.0126082047421904,0.1028148914816208,outlier_low_confidence,0.0257037228704052,True,9866,2.525216837951075
26777,test,1,medium,111001,111,0.1772134925918217,0.1651785734058858,0.6167140157520771,0.1158384095148125,0.2056,0.5516413130504404,0.1,0.9318895745733404,2.167637675786198,0.0021683573722839,0.0100510478019714,0.4635306696846618,0.8958276793229151,0.0040553304755072,0.0210387785289579,0.3272113323292488,15.0,22.0,0.7,0.4774827629572558,1.18197589613249,0.0858469729550824,0.3373421341437063,0.0,0.0,0.2857142857142857,0.6611685740023795,0.0059092082948544,0.0152,0.9929543634907928,0.0025489258796134,0.0,0.0,0.7526620305455316,-1.150781829010178,3.115283215283644,0.0296236989591673,0.1510883288458893,0.0272839678088322,0.0587154547454845,16.56537172360419,0.0176140912730184,0.2491987179487179,0.4952607711663991,0.8656564296754459,1.1753514643165353,0.6133006218905674,3.265986323710904,0.2344123783149211,15.0,11.0,7.0,0.9295483805031384,0.0076975136995315,0.8958276793229151,0.0781754212264388,0.0191265282144665,0.0055030841468212,0.0013636764589532,0.9941854441011654,0.0043718493167344,0.0010998133526842,0.0002982007805968,4.467212873793254e-05,-6.057657972486483,21.751503998654208,-3.110905962722621,-1.2063415115269294,7.884493807559887,8.582450625947885,-2.9417228097894634,-1.7437533257991578,25.5528283858437,25.48094091238839,-0.0718874734553089,0.2333333333333333,good,False,False,ambiguous_boundary,0.0978547233722243,0.0117613850207,isolated_medium,0.0978547233722243,0.0117613850207,0.1280535691883076,outlier_low_confidence,0.0320133922970769,True,9687,2.5203029844167704
26915,test,1,medium,111001,111,0.3233991948238857,0.3199313077931922,2.5039018797874446,0.1406314768328119,0.3272,0.5996797437950361,0.1,1.054373964248263,1.366131516107628,0.003520518541336,0.0686874270439145,1.9510544009919413,0.4597169098515166,0.0063936518299938,0.0962397939843647,0.5997659902851494,18.0,30.0,1.2,0.4052501413964965,1.3768099729736476,0.0934066220314865,0.0399942228982432,0.0,0.0,0.5,0.6680114061984916,0.0177278136909697,0.0152,1.0,0.0153846515791348,0.0,0.6666666666665926,0.874964065854671,4.314291706049749,26.90753668548124,0.0112089671737389,0.5805810520806614,0.1023560453076362,0.166069397742518,5.354748280669874,0.0344275420336269,0.3205128205128205,0.207477382684964,0.5580629956125033,1.2131215673095732,0.4299668281966564,2.943920288775949,0.2535548202751237,18.0,13.0,11.0,0.4123811222663492,0.0333393216133117,0.4597169098515166,0.4368847102216803,0.091914762202689,0.0093060614660754,0.0021756431733002,0.918561402934026,0.0700573694600192,0.0082667012144468,0.002879055104733,0.000235465026753,-8.067501911742555,10.859903083563156,0.2659177338153442,1.9682658880004007,4.366117643040881,6.66703392853802,-2.4392431527212253,-2.832975245761012,15.957071477917578,14.975699715466655,-0.9813717624509212,0.2666666666666666,good,False,False,ambiguous_boundary,0.0196650357546104,0.0672751223184042,isolated_medium,0.0196650357546104,0.0672751223184042,0.1156376238865888,outlier_low_confidence,0.0289094059716472,True,9764,2.517684424422959
25442,test,1,medium,111001,111,0.1487101534707252,0.1480772026678934,0.8668110662698745,0.1029868821119132,0.096,0.5412329863891113,0.1,0.744669823936638,2.224086458353344,0.0022498741745948,0.0193000942468643,0.8578261256644263,0.8628502885217497,0.001112433731516,0.0052822957122284,0.3603242980322197,15.0,34.0,1.9,0.3651199326663804,2.500576685182628,0.1085518360176415,0.0490554384860086,0.0,0.0,0.2857142857142857,0.6205944359093738,0.0006650591223354,0.0152,0.9742193755004004,0.0003752035003245,0.0,0.0,0.700275502184252,-0.1528600333652759,4.988548666597502,0.0240192153722978,0.2393201208281612,0.0219268649884044,0.0602339641552082,16.178320691099774,0.0176140912730184,0.3846153846153846,0.5675960402039141,0.8063990146864675,1.2405257381970205,0.3112225017229924,2.867441755680876,0.2585688584788905,15.0,12.0,8.0,0.6425840417228466,0.0164650766411796,0.8628502885217497,0.1304854183396908,0.0047640062482553,0.0016152131602338,0.0002850380896327,0.9938596407937408,0.004653855898302,0.0010856836948898,0.0003671242124877,3.366561273099519e-05,-5.518806907597302,20.700861173042654,-2.6393356724373853,-0.2663345755063957,6.464523796782882,8.431570543967647,-3.067229772265182,-1.7494253871672851,24.024951724418568,23.990502570197226,-0.0344491542213418,0.1666666666666666,good,False,False,ambiguous_boundary,0.1057583741061347,0.0144900263455024,isolated_medium,0.1057583741061347,0.0144900263455024,0.1088226069501944,outlier_low_confidence,0.0272056517375486,True,9812,2.505392042319818
24079,test,1,medium,111001,111,0.1418229524148112,0.1384374250751333,0.7565197648108005,0.0749684236824563,0.2176,0.6909527622097679,0.1,1.284861731463903,2.174196330091764,0.0013889484107494,0.0233431100845336,1.6806198014192872,0.7618035102291125,0.0048069286358541,0.0254736149202291,0.4524496938274867,17.0,34.0,1.7,0.6736858441867021,1.1299287294346132,0.0566836088349518,0.3138977986209126,0.0,0.0,0.4285714285714285,0.6864845129073013,0.0063560051007487,0.0152,1.0,0.0054731616081085,0.0,0.0,0.6984360752584647,-2.890458447686162,11.842621880574963,0.0504403522818254,0.3953171842088342,0.0191649278926847,0.0781173275338654,13.711593340692788,0.0200160128102481,0.3116987179487179,0.4080928430778929,0.724797503375582,1.2828827926386088,0.4437571029469851,4.642796092394707,0.1772171071975803,17.0,14.0,6.0,0.7673324599217072,0.0109343230724334,0.7618035102291125,0.207208646979829,0.0229011476089526,0.0062899898394323,0.0017852821740359,0.993641745024936,0.0035133120049757,0.0023174311099307,0.000435226298995,9.22557289257834e-05,-5.823978144058879,20.793842033679,-2.965968187840165,-0.2832283306531366,6.6594898822101,8.865186949807851,-0.7884154482916025,0.074949163898314,24.17813617805941,24.09539219097537,-0.0827439870840436,0.1666666666666666,good,False,False,ambiguous_boundary,0.0957847196085811,0.0139254798645088,isolated_medium,0.0957847196085811,0.0139254798645088,0.1042215531300965,outlier_low_confidence,0.0260553882825241,True,9848,2.501254176394073
25067,test,1,medium,111001,111,0.1976021070283818,0.1944107706173366,0.5993601566553115,0.1750369688653387,0.0528,0.6236989591673339,0.1,0.2867539451623306,1.6277925519045953,0.0020952820777893,0.0093086376786231,0.4442644430004487,0.9698158902321082,0.0012019807702743,0.0077048594032757,0.2164303871992133,11.0,20.0,0.9,0.5409597464530089,1.989354362932884,0.2817915090894357,0.2930910873379723,0.0,0.0,0.0,0.6709719695633828,0.0021936940996063,0.0152,1.0,0.0007682527532985,0.0,0.0,0.7336936860540316,0.1448854040404411,1.4610090921961767,0.0320256204963971,0.1111486727186426,0.0377955538438113,0.0426954443294805,21.778849343750423,0.0032025620496397,0.25,0.4885980626117109,0.8998349297619561,1.150454412272771,0.3989748928008136,1.8856180831641267,0.3465462064555278,11.0,7.0,7.0,0.8095944562494103,0.0090745151042938,0.9698158902321082,0.0209282703687398,0.0068886187992689,0.002137163592871,0.0002292705585682,0.9969504001409368,0.0021992162914375,0.0006873549267161,0.0001447193638586,1.8292239999480552e-05,-7.611377353235513,22.709300672503595,-3.83613608462144,1.6392245722546412,8.59120430734703,9.327709293234728,-3.874976827265617,-5.368765455229262,28.08087477293789,27.60836917012125,-0.4725056028166357,0.2333333333333333,good,False,False,ambiguous_boundary,0.0403650733910425,0.0087504704554008,isolated_medium,0.0403650733910425,0.0087504704554008,0.1015810437837159,outlier_low_confidence,0.0253952609459289,True,9872,2.4908040923049963
26803,test,1,medium,111001,111,0.1886704858422531,0.1684005485771309,0.6335748025029897,0.1194983044783526,0.2528,0.5468374699759808,0.1,0.9446533522735764,1.879461294778441,0.0021796599030494,0.0116362869739532,0.5338554685584954,0.9539804596330778,0.0012265112702344,0.0087632850658577,0.2024942238796849,13.0,19.0,0.6,0.4535037159436984,2.264587785015472,0.1025581662934555,0.0499833248084826,0.0,0.0,0.1428571428571428,0.6421855022558237,0.0024838639632752,0.0152,0.9843074459567654,0.0010209325289494,0.0,0.0,0.7489457922661803,-1.2155400480217318,3.2638657483820888,0.0304243394715772,0.1434475693025489,0.0283587513930677,0.0526910271382547,17.577443531764906,0.0168134507606084,0.2115384615384615,0.5093079761910334,0.8412558939563023,1.1352903468903617,0.4906650764243903,3.741657386773941,0.2108967220595339,13.0,10.0,4.0,0.7203024402405985,0.0104348927736282,0.9539804596330778,0.0356378435760986,0.0080330220795706,0.0021161795736131,0.0002324088528985,0.9956802791885044,0.0030712841721504,0.000982530193657,0.0002508300212725,1.50575187664735e-05,-6.7338918961105145,22.250129260995987,-3.507112115399776,-0.3088640883690092,8.395399801411857,9.030541579341127,-3.3565706650677627,-1.957497543712286,26.59524295396981,26.359376309050525,-0.2358666449192874,0.2,good,False,False,ambiguous_boundary,0.0687805796010538,0.0102559277380504,isolated_medium,0.0687805796010538,0.0102559277380504,0.1030024463680842,outlier_low_confidence,0.025750611592021,True,9864,2.4903120709186726
26720,test,1,medium,111001,111,0.167762651383941,0.1604211572265185,0.6570520859956741,0.1211211970826436,0.1528,0.3819055244195356,0.1,0.6697202549661206,2.4818514233897337,0.0034172311425209,0.0209879428148269,0.6141779856760151,0.8512554633900422,0.0061997244521306,0.048019254963706,0.3325944181633088,18.0,40.0,2.2,1.107958554484596,2.406303694851668,0.0929954831408971,0.053632093194355,0.0,0.0,0.5,0.7164173183630673,0.0166260450990671,0.0152,0.6874299439551641,0.0088003406687718,0.0,0.8571428571427346,0.7435768442578709,-0.640502507871753,2.83876209327306,0.0168134507606084,0.3024039653737872,0.0257349544774723,0.136893476941721,6.942734890956859,0.0184147317854283,0.3189102564102564,0.3856007786706508,0.8822908371354979,1.2092513898125763,0.349893340359034,2.494438257849294,0.286169028098801,18.0,16.0,12.0,0.8618469423644545,0.0152298234403133,0.8512554633900422,0.0923061764733465,0.0438473816204848,0.0115001210127894,0.0010901457444407,0.9584326812271317,0.029603812798111,0.0093176048106848,0.0024788016266069,0.0001670754105318,-4.634528234559369,17.8161365006054,-1.7513446453845132,-0.5150478960045092,3.648469430164925,4.082307066535551,-0.8795832022399305,-3.543855457210297,19.2646774185148,19.37577575125104,0.1110983327362404,0.1,good,False,False,ambiguous_boundary,0.1295634173880316,0.0354723372224313,isolated_medium,0.1295634173880316,0.0354723372224313,0.1003980052691004,outlier_low_confidence,0.0250995013172751,True,9883,2.488711218090492
25283,test,1,medium,111001,111,0.1595602559905455,0.1595465466838317,0.8755743852257726,0.1146595267937693,0.1384,0.5876701361088871,0.2,0.6749414963270639,1.97504829902208,0.0019208379089832,0.0240806370973586,1.2536462145045812,0.876080922799024,0.0007615493328685,0.0162184845729085,0.348008139709424,14.0,27.0,1.3,0.4312745174395779,2.18407970552838,0.1243828798262511,0.2274999894225689,0.0,0.0,0.2142857142857142,0.7102024937739597,0.003041138742514,0.0152,1.0,0.0020443893224304,0.0,0.0,0.8926865158987132,0.9030151833412104,5.39929428016815,0.0312249799839871,0.2685131543149007,0.0254551073678052,0.0794526068835231,9.665318969956692,0.0176140912730184,0.2596153846153846,0.4335344342194487,0.7997434218581788,1.127264715653427,0.4693326407128023,2.943920288775949,0.2535548202751237,14.0,9.0,7.0,0.6688479302369108,0.0145269909495254,0.876080922799024,0.1066160063087432,0.0155852912383822,0.0014979027851948,0.0002198195609341,0.9795597626834948,0.0177313865556909,0.0023686044856897,0.0003070874786933,3.31383649530166e-05,-6.287977941009466,19.192733587579333,-3.2357761587259395,0.3810804902292222,6.905946226119712,10.984891494831192,-0.0823630424250798,-4.452937826491279,24.42684784334185,24.15370452570347,-0.2731433176383788,0.3,good,False,False,ambiguous_boundary,0.0610651110274746,0.0133609333835152,isolated_medium,0.0610651110274746,0.0133609333835152,0.1351514866390666,outlier_low_confidence,0.0337878716597666,True,9648,2.4873082350893045
26808,test,1,medium,111001,111,0.1566633471468589,0.1478225597495284,0.6783943109214305,0.1046478336264726,0.1256,0.5460368294635709,0.1,0.8632520596084755,2.1488584773696897,0.0021309554576873,0.0175196886062622,0.822147939707825,0.8193124098749185,0.0034250051651719,0.027162472916296,0.4155832136367139,15.0,23.0,0.8,0.6098956621083214,1.4152455282515564,0.1155138620415119,0.0422553386616312,0.0,0.0,0.2857142857142857,0.6594966387674877,0.0092034857798798,0.0152,0.9828662930344276,0.0050817226684905,0.0,0.0,0.7738030807959355,-1.5962595330358276,5.584017853640217,0.0272217774219375,0.2611970788910431,0.0218515162144518,0.0816296689566851,11.52447212021774,0.0192153722978382,0.2676282051282051,0.4679491871233321,0.8310595374034668,1.1713109399304698,0.3309599266676713,2.943920288775949,0.2535548202751237,15.0,13.0,8.0,0.5305048028688312,0.0165997512638568,0.8193124098749185,0.1488470913224326,0.0253363203571331,0.0058246237897281,0.000678996202677,0.986708599497493,0.0096995766067428,0.0030618030734042,0.0004740569616523,5.593643057789413e-05,-5.648459146160506,19.76660699839404,-2.8095171597423323,0.1685132924992116,5.313183729002989,7.300560061352443,-1.5924532854611733,-1.2552471727850911,22.44774956334901,22.32587020054581,-0.1218793628031988,0.1333333333333333,good,False,False,ambiguous_boundary,0.0893865261573202,0.0191004892736168,isolated_medium,0.0893865261573202,0.0191004892736168,0.0907107012921841,outlier_low_confidence,0.022677675323046,True,9972,2.4834953727744082
26766,test,1,medium,111001,111,0.1637376240016901,0.155729904349817,0.6674396681785583,0.1048638858406309,0.18,0.5020016012810248,0.1,0.952073010364702,2.2166117351931214,0.0024907141923904,0.010351026058197,0.4155829894703334,0.7702745646399328,0.0095255739472234,0.0631006378033981,0.4527340927246518,14.0,30.0,1.6,0.5418425669070283,1.4160784361598957,0.0917794300709549,0.0553149784918082,0.0,0.0,0.2142857142857142,0.6501695341827398,0.0131502352157168,0.0152,0.9036028823058446,0.0058145217389636,0.0,0.0,0.7467938442415109,-1.435064132664113,4.360463270947832,0.0224179343474779,0.1761240766971024,0.0242518099942051,0.0780575724351924,12.705878625844848,0.0168134507606084,0.2748397435897436,0.4350678369622647,0.8454886722474534,1.2043133704456646,0.5674066742863146,2.6246692913372702,0.275887238151612,14.0,13.0,8.0,0.7468958475602121,0.008327167481184,0.7702745646399328,0.1544325021110404,0.0582245195854452,0.0146206183188569,0.0024440816627067,0.9920772827703348,0.0049481643575204,0.00222406417167,0.0006979585281147,5.250843096325153e-05,-5.634173911506849,19.882824540724176,-3.043703223039167,-0.7843359498852672,5.405373302831542,7.14908338900459,-2.269368228714538,-2.081283047315276,22.6521293433106,22.576049593147086,-0.0760797501635117,0.1333333333333333,good,False,False,ambiguous_boundary,0.0968197214904027,0.0180654873917952,isolated_medium,0.0968197214904027,0.0180654873917952,0.0938486388157069,outlier_low_confidence,0.0234621597039267,True,9941,2.480165506639466
26879,test,1,medium,111001,111,0.1745473919234581,0.1686670761078206,0.687889011800289,0.1317738136300235,0.1592,0.3450760608486789,0.0,0.5411643699108984,2.291863471269544,0.003894492983818,0.0211730331182479,0.5436645755882956,0.6486493332830812,0.0166085984323407,0.1179967120686584,0.5403153170621336,15.0,31.0,1.6,1.325343260179513,2.3515330158868406,0.086223465823894,0.1007829491632183,0.0,0.0,0.2857142857142857,0.6790321651623153,0.0601485181013611,0.0152,0.6211369095276221,0.0315239025053702,0.0,0.59999999999994,0.7388183429563152,0.8112262634204674,2.999498374130688,0.0176140912730184,0.3894228152568632,0.0284485891894199,0.1537727836704529,6.434316051917856,0.0208166533226581,0.3261217948717949,0.3959238016188781,0.8901835842157131,1.2088551981149958,0.6509699958912929,2.160246899469287,0.3164309725825327,15.0,14.0,10.0,0.6285114089440352,0.0123207852244376,0.6486493332830812,0.2108156828378865,0.1075581831978248,0.0297897576896621,0.0031847538860991,0.9539935166202668,0.0303743421857536,0.0133039224561183,0.0020154551355727,0.0003127413458991,-5.4271730852163325,15.175253979096542,-2.687103108139425,0.1389140955396623,0.8209038566472716,-1.023401079013494,-1.7867929807940308,-2.165219965429019,16.419463001256318,16.04042334124058,-0.3790396600157386,0.2333333333333333,good,False,False,ambiguous_boundary,0.0495859992472713,0.062852841550621,isolated_medium,0.0495859992472713,0.062852841550621,0.1165509346380629,outlier_low_confidence,0.0291377336595157,True,9761,2.479216580264292
26816,test,1,medium,111001,111,0.1808478271454799,0.1677448694533884,0.6367254243791103,0.1170764352917438,0.2112,0.5868694955964772,0.1,0.8749681673052789,1.915691509350456,0.0019078999757766,0.0096718847751617,0.5069361184730169,0.9660048279257674,0.0015305304680157,0.0095670677906385,0.2153152598162118,13.0,19.0,0.6,0.5113409642744347,1.5998944258468857,0.095723806638819,0.0410232596670924,0.0,0.0,0.1428571428571428,0.641697732356477,0.00305752104334,0.0152,1.0,0.0012445550925166,0.0,0.0,0.7387262395592001,-1.2486206430209277,3.360796428677242,0.0312249799839871,0.128396262360761,0.028138347873037,0.0510408952762028,18.559936105952367,0.0160128102481985,0.2171474358974359,0.4920014477288769,0.8586084390580488,1.1460534747040854,0.5452082651359309,3.741657386773941,0.2108967220595339,13.0,10.0,4.0,0.9011296414051222,0.0091973305679857,0.9660048279257674,0.0225126320630557,0.0086833861391934,0.0024558316140261,0.0003418937841635,0.995364553617714,0.0037476754443641,0.0006259121162257,0.000235751966216,2.6086522234706845e-05,-6.570629441305252,22.6790053692048,-3.689362818653214,-0.6389171385120197,8.739702919668028,9.198157957222309,-3.4621054620816243,-1.9175511301481791,27.115059371433755,26.918235850975115,-0.1968235204586399,0.2,good,False,False,ambiguous_boundary,0.0751787730523146,0.0096913812570568,isolated_medium,0.0751787730523146,0.0096913812570568,0.1057687241249529,outlier_low_confidence,0.0264421810312382,True,9836,2.4787007326212884
25356,test,1,medium,111001,111,0.2966755582770272,0.2960782208233591,1.8081819322705268,0.1568340455506986,0.2536,0.4707766212970376,0.1,1.242063462579157,2.0873952370154822,0.0048475265502929,0.0458024859428405,0.9448610746436228,0.6578094465444044,0.0126941887956732,0.0400203733837341,0.5096562649230092,23.0,46.0,2.3,0.3012901159263771,0.8203423268419833,0.0995414225629629,0.0814060416402305,0.0,1.0,0.8571428571428571,0.6893615846083779,0.0036538614958188,0.0152,1.0,0.0022836911151765,0.0,0.29999999999997,0.6631199563854928,-3.299131086827708,17.613829575598693,0.0120096076861489,0.4318997721174863,0.0876623169243615,0.1819190979589734,7.395464961215785,0.0312249799839871,0.390224358974359,0.1880483798747564,0.6431524484677942,1.347228178380521,0.2343214816218163,4.496912521077347,0.1819203045647175,23.0,17.0,12.0,0.7794529373066518,0.0372634470462799,0.6578094465444044,0.2881708498434793,0.0374117295104141,0.0094507087896542,0.0071020357446547,0.9674401892530764,0.018280010735091,0.011573829932142,0.0015871883084855,0.0011187739942099,-5.232981898144147,15.244926872010993,2.2653857780699505,0.2165937548953686,6.884540652468382,6.361161158311799,-2.652563907067418,-2.1176806835624897,18.49644192804239,18.72667471607244,0.2302327880300509,0.1666666666666666,good,False,False,ambiguous_boundary,0.1456529920963492,0.0425291682348513,isolated_medium,0.1456529920963492,0.0425291682348513,0.1323830134236607,outlier_low_confidence,0.0330957533559151,True,9668,2.475871760666573
24094,test,1,medium,111001,111,0.1519970061479901,0.1456315838059819,0.5980003903806209,0.0872642007105518,0.2528,0.4339471577261809,0.0,1.2001756664972567,2.577073118843201,0.0030937865376472,0.0254502890631555,0.8226232317949984,0.8072323466954843,0.0092776345212048,0.0424452043646707,0.4225603827079892,20.0,50.0,3.0,0.6385551154502679,1.0546170345585089,0.0277404856504017,0.4453198956968441,0.0,0.0,0.6428571428571429,0.7434542508774825,0.0067759005933481,0.0152,0.7811048839071256,0.0042395942680009,0.0,0.3571428571428316,0.6562630346516138,1.977099624242094,6.09658559440628,0.0224179343474779,0.3982364460161683,0.0212085652892071,0.09904418391995,10.84576715045103,0.044035228182546,0.3573717948717949,0.5424797221354332,0.777333394852933,1.3627007313241677,0.4421936391593504,3.39934634239519,0.2273064955953337,20.0,18.0,12.0,0.7422898510064416,0.0156018380075693,0.8072323466954843,0.1389833008592628,0.0376037825403046,0.0133944650493146,0.0027749767454669,0.989921036276086,0.0051431838317427,0.0038509408289687,0.0009610762363337,0.0001237360996425,-4.145251418941273,18.482197614572872,-1.1363562883893197,-1.7224705720289408,3.07824411109092,3.1397833145044376,-2.653835137335307,1.3197601710088704,19.24879418945717,19.6688969897836,0.4201028003264255,0.1666666666666666,good,False,False,ambiguous_boundary,0.1703989461799021,0.0355664283025969,isolated_medium,0.1703989461799021,0.0355664283025969,0.1421261447748086,outlier_low_confidence,0.0355315361937021,True,9601,2.4693436739963945
25068,test,1,medium,111001,111,0.1410794974404878,0.1381856526505725,0.5953012569248677,0.0956016390409146,0.2032,0.6469175340272217,0.1,0.8587753585474215,2.0905961513412463,0.0016378536820411,0.0106865435838699,0.652468438066344,0.902414198062476,0.0015245137626768,0.0100332294513004,0.3058715957046344,16.0,28.0,1.2,0.2058766266543799,1.462509514903374,0.1081608527094555,0.1582296965271356,0.0,0.0,0.3571428571428571,0.6638140015218705,0.0009389124699468,0.0152,1.0,0.000449142762938,0.0,0.0,0.7462421537068674,-1.12812369898025,4.195748004350241,0.0352281825460368,0.172184614348557,0.0190952818347517,0.0534099389892868,18.579759854306364,0.0168134507606084,0.3012820512820512,0.4730032476493876,0.8622259974586457,1.1938979500456834,0.5023750811092388,3.741657386773941,0.2108967220595339,16.0,13.0,7.0,1.1052628072802853,0.0087638447061181,0.902414198062476,0.085602649783979,0.0089297906745454,0.0026791329662329,0.0003739492869231,0.9954692285157626,0.0032128624891738,0.0009253298344895,0.0003655220677518,2.702362188663392e-05,-5.748986376146146,22.793754489667315,-3.128874758087352,-0.291826715885238,7.703727673754342,9.456306849245248,-2.6234246585532195,-1.2215604815945855,26.547790845466,26.51189389611753,-0.0358969493484622,0.2,good,False,False,ambiguous_boundary,0.1053820097854723,0.010350018818216,isolated_medium,0.1053820097854723,0.010350018818216,0.1194919081671057,outlier_low_confidence,0.0298729770417764,True,9741,2.442231954682044
26747,test,1,medium,111001,111,0.1595949478783948,0.154974317956814,0.6363497714698314,0.1109718003032729,0.1216,0.600480384307446,0.1,0.8352979235649567,2.230521762077188,0.0019517540931701,0.0108938336372375,0.5581531946078157,0.8589171896487747,0.0052747922654262,0.0387900820244476,0.3693907927297616,17.0,27.0,1.0,0.5230985881970929,1.2412660513400862,0.0827619723851821,0.0360364597332609,0.0,0.0,0.4285714285714285,0.6638810579729537,0.010145518571519,0.0152,1.0,0.0048361691009573,0.0,0.0,0.7531479287761839,-1.274727316763953,3.824267367142285,0.0256204963971176,0.1876730234789831,0.0240170461266934,0.0687869716352092,14.09034800519056,0.0072057646116893,0.2844551282051282,0.4468690511741726,0.8639572066202565,1.1884588029182106,0.483272491000512,4.189935029992179,0.1926806393955006,17.0,14.0,7.0,0.9445382242782782,0.0078531922772526,0.8589171896487747,0.0954159509243972,0.0356076531532232,0.0088514760379149,0.0012037146838979,0.9922071495686744,0.005591273472322,0.0016939078136757,0.000458665080076,4.8979750385873663e-05,-5.318486477032803,20.84645094164511,-2.2479890717537394,-0.6836265159521259,7.069861346595043,7.493568784158413,-2.173865908652094,-1.3555494276646824,23.77283141889376,23.81655250064653,0.0437210817527677,0.1333333333333333,good,False,False,ambiguous_boundary,0.1189311253293187,0.0156191193074896,isolated_medium,0.1189311253293187,0.0156191193074896,0.103309496926358,outlier_low_confidence,0.0258273742315895,True,9859,2.4393738624167653
24472,test,1,medium,111001,111,0.1897102491358569,0.1837770174785787,0.8684330956637859,0.1294596417601453,0.1368,0.4931945556445156,0.0,0.8269313306700863,2.142350982657463,0.0028092265129089,0.022178816795349,0.7894962454543618,0.8347924293328893,0.0027771692686529,0.023500114556723,0.3298152194990373,14.0,34.0,2.0,0.8645197808209528,1.6637331463028897,0.0427986334505908,0.403910106806405,0.0,0.0,0.2142857142857142,0.8143028201623144,0.0067721046286151,0.0152,0.8877502001601281,0.0036391482864487,0.0,0.0,0.7567732789775704,-1.5362230818331537,5.502916985915636,0.0256204963971176,0.2666736118810238,0.0337739984777815,0.0761268389106071,11.862585721661056,0.0136108887109687,0.2203525641025641,0.5416299744365001,0.8358796991340357,1.1762138858629043,0.5387161223193874,2.160246899469287,0.3164309725825327,14.0,10.0,9.0,0.6779710122773038,0.0139311671257019,0.8347924293328893,0.1380912921296222,0.0215733618139049,0.0050603076731452,0.0004810560849137,0.9903998017483342,0.0065945167974365,0.0023607927066195,0.0006027713374023,4.20989697877942e-05,-5.383614015054737,18.35484034919184,-3.1030173826185035,-2.4740481071598075,3.99892603380686,3.361458264344134,-3.792430642191848,-0.1820389107527731,20.203037192001275,20.20440764906667,0.0013704570653949,0.1666666666666666,good,False,False,ambiguous_boundary,0.1107452013549115,0.0298268724124952,isolated_medium,0.1107452013549115,0.0298268724124952,0.1141340484255425,outlier_low_confidence,0.0285335121063856,True,9775,2.4310562097754422
24784,test,1,medium,111001,111,0.1552078541577216,0.1490155831737288,0.6869590608775615,0.1102546877086715,0.1112,0.4403522818254604,0.0,0.7639913827374609,2.3657253031062195,0.0029952824115753,0.0339825548231601,1.1345321308809253,0.7144303433940316,0.0143368737163689,0.059532916733238,0.4755190189978785,18.0,37.0,1.9,0.9044069646517284,2.44778110683284,0.0422652125983645,0.6317442820937057,0.0,0.0,0.5,0.7213912286299036,0.018566201558473,0.0152,0.7926341072858287,0.0135614039187564,0.0,0.6363636363635785,0.6410288573099062,1.0937740715444435,4.592353146564934,0.021617293835068,0.3723837102731767,0.0222056510482949,0.1995672228071621,6.452681167340678,0.0168134507606084,0.3197115384615384,0.363278488580438,0.8203700205918165,1.303389352719629,0.4990752401556613,3.2998316455372216,0.2325672450543258,18.0,15.0,10.0,0.9773532440521736,0.0184507891535758,0.7144303433940316,0.2067119048326044,0.0525767774556108,0.0228372499249337,0.003416439074014,0.9613215738340176,0.0248686596058427,0.0093149795130295,0.0037112989063191,0.0007834615270848,-4.522480523146114,16.11304653084473,-1.856337097206675,-0.9079260920311548,1.9141425620908965,0.6248896829257448,-1.6577500921638495,0.6399957654251619,16.683645244605344,16.77524704079751,0.0916017961921653,0.1,good,False,False,ambiguous_boundary,0.1268347760632292,0.0605005645464809,isolated_medium,0.1268347760632292,0.0605005645464809,0.1041757621377493,outlier_low_confidence,0.0260439405344373,True,9849,2.425754785860094
24259,test,1,medium,111001,111,0.1714674735139483,0.1713463270842752,0.8057777720689774,0.1370420683444477,0.0832,0.2481985588470776,0.0,0.3148798186299018,2.4871938539197984,0.0053527439013123,0.0366603419184684,0.6848874914551984,0.6834996361602969,0.020871130957763,0.1365130875657311,0.5043354292256096,19.0,39.0,2.0,1.0510004848211048,4.209471285170904,0.0403449095855398,0.1382252241540218,0.0,0.0,0.5714285714285714,0.7084131213981499,0.0478251070720031,0.0152,0.6217984634799496,0.0293343788984307,0.0,0.8888888888887901,0.7158611917949824,0.6089437393529376,4.0898252458781945,0.0120096076861489,0.4175515896553476,0.029359570378345,0.2440811399097938,3.973968232939747,0.0144115292233787,0.4455128205128205,0.3574361189570683,0.8636503919364136,1.2894453671865065,0.4696402725267862,3.681787005729087,0.2135936553235556,19.0,14.0,10.0,0.6913196821718137,0.0173386603593826,0.6834996361602969,0.1520956701162896,0.1212559519865616,0.0397753237411094,0.0033732040258672,0.8779199710881039,0.086230430946498,0.026056863345001,0.009077146836419,0.0007155637708901,-4.243926317809547,13.588318313295888,-0.9998660632819636,-0.1346666956327099,0.9817313800008594,-2.3139534768716965,-1.5464244835820975,-1.8475564772798905,14.34447098763861,14.345471428584135,0.0010004409455266,0.0666666666666666,good,False,False,ambiguous_boundary,0.1105570191945803,0.091080165600301,isolated_medium,0.1105570191945803,0.091080165600301,0.0913000250909546,outlier_low_confidence,0.0228250062727386,True,9964,2.42562796253286
24920,test,1,medium,111001,111,0.1709855595080785,0.170247444794537,0.6013927918672561,0.1420687425536103,0.096,0.644515612489992,0.1,0.5637504134455078,1.9355889876312768,0.0018543452024459,0.0117357730865478,0.632876218702209,0.9192805170704648,0.0026223248557549,0.018890300451436,0.2529494025330923,15.0,25.0,1.0,0.5580091322907136,1.34804090803738,0.1488820956828972,0.1248181280696485,0.0,0.0,0.2857142857142857,0.7416552195106936,0.0052704800818083,0.0152,1.0,0.002412903211089,0.0,0.0,0.7529726377434535,0.3129282335171782,2.078130398618005,0.0312249799839871,0.1517628393386138,0.0289841990541201,0.046493989594706,21.395569361945743,0.0096076861489191,0.2532051282051282,0.4827158746283347,0.92406832160681,1.2095835237632109,0.3183927661191154,2.943920288775949,0.2535548202751237,15.0,8.0,13.0,0.9794743051713076,0.0099334686994552,0.9192805170704648,0.0584479567963415,0.0170550734556376,0.0046575991587374,0.000555033498661,0.996007360473218,0.0028156798350922,0.0008772513311283,0.0002792845683035,2.040080031117931e-05,-6.120602857007159,22.52073647755969,-2.9596592830286066,-0.7039390835340167,8.975285378157887,9.43732043312692,-3.556506910120369,-3.5874229297724227,27.09684700564904,27.006101074165706,-0.0907459314833332,0.2333333333333333,good,False,False,ambiguous_boundary,0.0943733534060971,0.0097854723372224,isolated_medium,0.0943733534060971,0.0097854723372224,0.1260917701668548,outlier_low_confidence,0.0315229425417137,True,9700,2.422983557123629
24285,test,1,medium,111001,111,0.1621308379717912,0.1585169226724153,0.6275192527472973,0.1252472786982427,0.0832,0.3250600480384307,0.0,0.5862135496273666,2.5252279736181764,0.0039300173521041,0.0295229077339171,0.7512137979932951,0.8845601579171373,0.0065364493894871,0.0337125496237536,0.3442058982714294,19.0,44.0,2.5,0.9379652235735012,1.427602693295969,0.0262852168551507,0.5440552494863017,0.0,0.0,0.5714285714285714,0.6997842036289855,0.0090346283271648,0.0152,0.6313069934045441,0.0052733368952908,0.0,0.307692307692284,0.7174892509992847,0.6836004650827177,2.810780405256808,0.0160128102481985,0.2071409689223351,0.0251276216031941,0.1164904685487156,8.863715865459644,0.0152121697357886,0.2940705128205128,0.5177164543676283,0.9188864009921236,1.302096105322172,0.3694825756085903,3.741657386773941,0.2108967220595339,19.0,16.0,10.0,0.6659489061471117,0.0140477272332646,0.8845601579171373,0.0736020445028342,0.0302352685572307,0.0097309011336331,0.0018700592156301,0.9802385611050544,0.0121113920187544,0.0061655968431137,0.0013465856865707,0.0001378399056963,-4.0525521482561775,18.066930369632527,-1.566600886589245,-1.451667781626008,3.485626721960871,-0.1287869974237508,-2.82734311092905,-1.012761245231192,18.790729272600537,19.05780329718828,0.2670740245877425,0.0666666666666666,good,False,False,ambiguous_boundary,0.1507339104252917,0.0398946179902145,isolated_medium,0.1507339104252917,0.0398946179902145,0.0991425166227574,outlier_low_confidence,0.0247856291556893,True,9892,2.422170403816991
26927,test,1,medium,111001,111,0.2846785397248537,0.2845323898669714,2.048486315011978,0.13360868921855,0.2192,0.5452361889511609,0.1,1.1300080832924122,1.3177492628686494,0.0037251636385917,0.0670542597770689,1.800030449115323,0.3092837028442645,0.017800762570413,0.1338733577941737,0.6757987610399797,18.0,29.0,1.1,0.5095858663068166,1.4545561430441676,0.120568246684098,0.0470445528758919,0.0,0.0,0.5,0.7053754024727267,0.0324857004794983,0.0152,0.9814251401120896,0.0277736860567946,0.0,0.6666666666665926,0.7522466529895188,4.137936883304199,39.41847875128008,0.0312249799839871,0.7502214627946935,0.0809586851927625,0.270027525528637,3.967695871188096,0.0224179343474779,0.2772435897435897,0.1590393135271739,0.5059487257009446,1.2486163868049729,0.362472755013223,2.867441755680876,0.2585688584788905,18.0,14.0,11.0,0.2373389306699966,0.0189232254400848,0.3092837028442645,0.5347306992972332,0.1251591234364275,0.0253594547825586,0.0054534391432156,0.8319768407484384,0.1448984014446555,0.0112789076774991,0.0114681383814436,0.0003777034818154,-8.015207506875862,9.948340604867116,-0.2561437929416433,3.061866846534148,2.954290597968701,6.121876691302931,-0.5845745315270561,-3.058841388547241,14.942835371702085,13.6791300687939,-1.2637053029081855,0.2,good,False,False,ambiguous_boundary,0.01411366202484,0.0805419646217538,isolated_medium,0.01411366202484,0.0805419646217538,0.0924595408355287,outlier_low_confidence,0.0231148852088821,True,9954,2.420605808986294
24432,test,1,medium,111001,111,0.1748850768890109,0.1747893428377261,0.7081481197476387,0.1437511017387267,0.064,0.4203362690152121,0.0,0.5590236223257251,2.250739367669259,0.0033025965094566,0.0299225598573684,0.9060286101807352,0.7152175440664464,0.0142454459477356,0.0942925969060026,0.4988034101805201,15.0,47.0,3.2,1.3088277639493455,1.8644408167687525,0.0609067413858265,0.6729641292458644,0.0,0.0,0.2857142857142857,0.7298983749725149,0.0293839925632048,0.0152,0.8,0.0187081432895641,0.0,0.5833333333332847,0.7241948941624304,-0.2344827444255332,2.3114956422973902,0.0224179343474779,0.310551977525809,0.0305513208738574,0.1136638647859,8.91573921500402,0.0112089671737389,0.3301282051282051,0.4126251157728756,0.8848219531947287,1.296706203016203,0.6091223370208275,2.867441755680876,0.2585688584788905,15.0,12.0,8.0,0.8318682103455622,0.0144953858107328,0.7152175440664464,0.1719409651122804,0.0847346625703248,0.0252581031358992,0.0028462617025821,0.9845110302207766,0.0096345510477558,0.0045596290469486,0.0011750958324853,0.000119677161311,-4.994822605047527,16.3254027056847,-2.213794807100892,-1.840969835157496,2.936796153105304,0.5271817232686714,-2.8522256628241944,-1.3183575937724914,17.46397291859806,17.464356619840157,0.0003837012420966,0.2,good,False,False,ambiguous_boundary,0.1104629281144147,0.0520323673315769,isolated_medium,0.1104629281144147,0.0520323673315769,0.130114791117802,outlier_low_confidence,0.0325286977794505,True,9681,2.4178826215530873
27165,test,1,medium,111001,111,0.1655076578064427,0.1587904758506766,0.6297158318758012,0.1098026077767659,0.2656,0.5124099279423538,0.1,0.9222121071938388,2.1792539820292736,0.002379834651947,0.0351541101932524,1.4771598711072105,0.7445699449288032,0.0132450928910806,0.0607979057051945,0.4770374118841729,20.0,42.0,2.2,0.5289133223258224,1.7458528343103945,0.0942251266875654,0.214687199277249,0.0,0.0,0.6428571428571429,0.6739090032756989,0.0100490069678082,0.0152,0.9223378702962368,0.0082827193852409,0.0,0.230769230769213,0.6941020286184338,-1.03249426201077,3.206199131203186,0.032826261008807,0.3055702090919313,0.0252144220450749,0.1213279177554119,9.670437931638103,0.0152121697357886,0.4166666666666667,0.5017890969819195,0.8141021508907139,1.3971740195966835,0.3484854827423092,3.771236166328253,0.2095892898903721,20.0,12.0,12.0,0.6807229331676542,0.0249409973621368,0.7445699449288032,0.1782324265776419,0.0531955041820824,0.0196586962772711,0.004316908637179,0.9831480158350632,0.0104338740952748,0.0047076169643069,0.0014938608955775,0.0002166086846904,-4.734166603975014,18.429679946580578,-1.389058799490403,0.2272351620425891,5.368815258612306,6.712251947341278,-0.9919752609597468,-1.3280941610090853,20.643747740994183,20.736825697810183,0.0930779568160034,0.1,good,False,False,ambiguous_boundary,0.127117049303726,0.0276627775686864,isolated_medium,0.127117049303726,0.0276627775686864,0.0977352277004139,outlier_low_confidence,0.0244338069251034,True,9905,2.394491467575532
24837,test,1,medium,111001,111,0.1862233237992581,0.1767034294167863,0.743477845788002,0.145434366101271,0.0816,0.3642914331465172,0.0,0.5103812772725137,2.162968938830148,0.0041751265525817,0.0226016074419021,0.5413381612135766,0.9162803785072698,0.004800877035248,0.0333548088849164,0.3097753259545103,16.0,36.0,2.0,1.4490156596116222,2.330929412397826,0.0682878676773184,0.0907870520616878,0.0,0.0,0.3571428571428571,0.7034196250149432,0.0161105467991989,0.0152,0.6557245796637311,0.0074272559430901,0.0,0.69999999999993,0.7374542066676041,-0.442296540832868,2.4385433872501703,0.0120096076861489,0.2143474158783133,0.0312241084335846,0.1274685296335782,7.564423556093376,0.0152121697357886,0.2588141025641026,0.4469116058901165,0.8871320694965745,1.1993396260404003,0.4400881736064657,3.2998316455372216,0.2325672450543258,16.0,13.0,8.0,0.8726737615917021,0.0171298190020024,0.9162803785072698,0.0440130458589727,0.0303164649589355,0.0084788331820704,0.0009078174695461,0.9699901184148388,0.0230613559671234,0.0049899532165155,0.0017671941492257,0.0001913594960989,-5.01390298263143,17.49642528370021,-2.0668097301151778,-0.8142053506985779,3.1323276512888087,-0.4486754530095941,-3.052293847354629,-1.6144460778384797,18.598076591314022,18.55323339947721,-0.0448431918368115,0.1333333333333333,good,False,False,ambiguous_boundary,0.1035942792623259,0.0414000752728641,isolated_medium,0.1035942792623259,0.0414000752728641,0.1015641073892861,outlier_low_confidence,0.0253910268473215,True,9873,2.3940339194181988
25386,test,1,medium,111001,111,0.1797905130173267,0.1657370255752797,0.7246367192268371,0.1144699777177273,0.2128,0.3266613290632506,0.0,0.9717897653906584,2.3346143207879795,0.0039525106549263,0.0270509958267211,0.6843985949322146,0.8842495146554984,0.0024745934081945,0.0151101334788301,0.2929643296354686,17.0,45.0,2.8,0.4498800995985053,2.0496134974581004,0.0295922148153258,0.1552262350520744,0.0,0.0,0.4285714285714285,0.6398942790221318,0.0017888811458954,0.0152,0.7,0.0009334552704258,0.0,0.0,0.7203362920204405,-1.5082485232200786,4.713614775693605,0.0088070456365092,0.2061508964039269,0.0274687683318005,0.0851720265255696,11.918467786254675,0.0168134507606084,0.3846153846153846,0.5382687305693108,0.8208214261608978,1.2987848982697143,0.4039100294876316,4.320493798938574,0.1879524791852022,17.0,15.0,7.0,0.9073990961667904,0.0177520109573379,0.8842495146554984,0.0972955075746604,0.0136933004276265,0.0040706754607477,0.0006903829510718,0.9833201534402172,0.0145989845324257,0.0014461065222363,0.0005458259408469,8.890874771539527e-05,-4.362044222777353,19.35556773228408,-1.58690854947952,-1.3904842305332117,4.458266763547386,1.676964508798862,-4.369759071625602,-0.1985476936647021,20.56752784331692,20.81056276506286,0.2430349217459415,0.0666666666666666,good,False,False,ambiguous_boundary,0.1475348136996612,0.02822732404968,isolated_medium,0.1475348136996612,0.02822732404968,0.0953694643081168,outlier_low_confidence,0.0238423660770292,True,9927,2.3917273970669966
25322,test,1,medium,111001,111,0.1559456433285798,0.1496661918715017,0.6453702069073916,0.0949714728588238,0.2224,0.5116092874299439,0.1,1.094093820941612,2.2423139989888345,0.0024360865354537,0.0126356303691863,0.5186834834044305,0.7268866977257001,0.0101391826999213,0.0605639888580429,0.4633753443168693,20.0,40.0,2.0,0.5075131839905274,1.2835328661849166,0.0845958574752558,0.0607543133907938,0.0,0.0,0.6428571428571429,0.7075491557865624,0.010245674273504,0.0152,0.9208967173738992,0.0049558249605397,0.0,0.3749999999999531,0.7140841388028326,1.814529672201458,5.742121641682832,0.0192153722978382,0.2913651064265331,0.0223999759959934,0.0938674229859356,11.47031969035875,0.0304243394715772,0.3389423076923077,0.3329480883609058,0.8080426676105863,1.30172751291967,0.4411839342693571,3.681787005729087,0.2135936553235556,20.0,16.0,11.0,0.8794012301699118,0.0095943816471844,0.7268866977257001,0.2000314406768913,0.0545119326287159,0.0158958936314876,0.0026689892924148,0.992968422866075,0.0046178465238878,0.0016157564872959,0.0007229852053247,7.497281239525294e-05,-4.904566839440793,18.88784419565442,-0.9933301645940656,-0.4690008797766929,4.978856999043935,7.201096099742449,-1.5178489972377769,-1.1887399626991595,21.055074455004576,21.258343905970044,0.2032694509654682,0.1333333333333333,good,False,False,ambiguous_boundary,0.1420775310500564,0.024934136243884,isolated_medium,0.1420775310500564,0.024934136243884,0.1155883828879688,outlier_low_confidence,0.0288970957219922,True,9766,2.390096714862522
25199,test,1,medium,111001,111,0.1496052643963721,0.1468889046229442,0.7325557680428028,0.0837050235634378,0.2376,0.5804643714971978,0.1,1.00837623677038,2.101672523064884,0.0019670967012643,0.0242838889360427,1.234497799251764,0.8327648528253255,0.0029796644990528,0.025360885153143,0.408116013611874,18.0,31.0,1.3,0.3624151983108963,1.813176049858254,0.0963847785041346,0.0459967613423318,0.0,0.0,0.5,0.7108842655070671,0.0039961609661374,0.0152,1.0,0.002754106245572,0.0,0.1111111111110987,0.7877184685691299,-2.4171928049128413,8.938548612436042,0.0288230584467574,0.2531431613265825,0.0215763573635504,0.0832948780947527,11.040138572645844,0.0192153722978382,0.3108974358974359,0.3914211488606979,0.7469974709930649,1.1959641527182676,0.2897978830677809,3.2998316455372216,0.2325672450543258,18.0,15.0,10.0,0.9368712863184973,0.0195272378623485,0.8327648528253255,0.1378406665586838,0.023601291655204,0.0051773122011556,0.000613403948323,0.9880757742777864,0.0080562790271963,0.0033059660404759,0.0004944473177021,6.750341694860733e-05,-5.081439755933718,19.88327361648836,-2.120094042567448,0.0501755239864364,5.115029573959784,8.38572124962733,-1.2875440060393926,0.1184139759009556,22.54242046266709,22.6156134104668,0.0731929477997042,0.1666666666666666,good,False,False,ambiguous_boundary,0.1237297704177644,0.0185359427926232,isolated_medium,0.1237297704177644,0.0185359427926232,0.1177189185798519,outlier_low_confidence,0.0294297296449629,True,9753,2.389163095888825
26751,test,1,medium,111001,111,0.1628808891472671,0.1529502939336886,0.6220873247087002,0.1085934954484537,0.196,0.5508406725380304,0.1,0.9032823951837756,1.978673082804282,0.0021540070883929,0.008912219852209,0.4137487998694637,0.8736311462645083,0.0056800051683715,0.0384078526404576,0.3006526811686172,14.0,20.0,0.6,0.7128152914138064,1.161493181438,0.1106055807985153,0.0456389226488796,0.0,0.0,0.2142857142857142,0.6590361913331141,0.0171110654203039,0.0152,0.9915132105684548,0.0068166599331233,0.0,0.0,0.7533048720560998,-1.2566631573623324,3.832253386146952,0.0232185748598879,0.1543152550707806,0.0233937993553959,0.0683585039101482,14.044119657108132,0.0120096076861489,0.2700320512820512,0.4483411719970457,0.8596684059972669,1.1865420487873315,0.5134502659387323,3.265986323710904,0.2344123783149211,14.0,10.0,6.0,0.9602371600576024,0.0076385289430618,0.8736311462645083,0.0808438594787368,0.0349729285947567,0.0094165045367129,0.0011352769839153,0.9929863068787848,0.0049037603946187,0.0016273690117042,0.0004386080272809,4.3930453888878286e-05,-5.816665281089537,21.00134217067668,-3.307346075581639,-0.3197827084687673,6.594952336733221,7.999194362826884,-2.572101944261151,-1.3425310795644316,24.27865880721628,24.151813695019968,-0.1268451121963103,0.1333333333333333,good,False,False,ambiguous_boundary,0.088257433195333,0.013643206624012,isolated_medium,0.088257433195333,0.013643206624012,0.0891111529293689,outlier_low_confidence,0.0222777882323422,True,9986,2.383834916627667
24937,test,1,medium,111001,111,0.1770796007775013,0.1755984159171707,0.5977326986193656,0.1508012261681375,0.0392,0.4227381905524419,0.0,0.3485567616274614,2.289064690299385,0.0036019086837768,0.0158613510429858,0.44035838772335,0.957363963404702,0.0017884060407664,0.0121358943217857,0.2051363438781379,16.0,60.0,4.4,0.5750986163870139,1.9615788041974005,0.0744155380831724,0.0833462536701428,0.0,0.0,0.3571428571428571,0.5973943520288904,0.0012924696357551,0.0152,1.0,0.0005536120585175,0.0,0.19999999999998,0.7570386967348629,-0.3073416301417396,1.901880697184442,0.0208166533226581,0.1318034956881879,0.0308348101606514,0.0715535624177128,13.367671713853117,0.010408326661329,0.2796474358974359,0.5688720015256472,0.93333804296711,1.2423479751029043,0.4239873822716251,4.027681991198191,0.1988988169400271,16.0,15.0,7.0,0.8625785479693513,0.0190987005829811,0.957363963404702,0.0282271411818532,0.0108431879068887,0.0032631512703888,0.0003024383133556,0.991773794180016,0.0053102926273667,0.0022492872240173,0.0006144075112843,5.219743833273688e-05,-4.388300330658392,19.3873019618288,-1.1047296939808355,-1.6841087741312124,5.675719276558407,2.629616778311957,-5.28831110652317,0.1977106529881115,21.15819862849702,21.44262602128516,0.2844273927881389,0.1,good,False,False,ambiguous_boundary,0.1533684606699284,0.024463680843056,isolated_medium,0.1533684606699284,0.024463680843056,0.108908543470079,outlier_low_confidence,0.0272271358675197,True,9809,2.378525962262498
24725,test,1,medium,111001,111,0.2013048082259128,0.1776864330190505,0.650609848499298,0.1363578003048809,0.2936,0.4651721377101681,0.1,0.90675059899698,2.1206530626344016,0.0030531212687492,0.0275244884192943,0.9015167051946036,0.7180835731645893,0.0084614885849599,0.0603626400104876,0.478758489470245,18.0,54.0,3.6,0.4718057682567585,1.0317515126510657,0.1070672561433805,0.0574609961662964,0.0,0.0,0.5,0.6997182253045482,0.0061911829878596,0.0152,0.9,0.0036948133435442,0.0,0.49999999999995,0.7649473501902224,-0.7596472869169881,2.1881367649724464,0.0248198558847077,0.3049610911031395,0.0315724749253049,0.0865303242843562,14.312897768916756,0.021617293835068,0.4703525641025641,0.4947680502240587,0.8213652898974664,1.389837476294652,0.4059407232427997,2.867441755680876,0.2585688584788905,18.0,15.0,11.0,1.033337921689757,0.0205364137887954,0.7180835731645893,0.2110679491300445,0.0553928443776901,0.0131143398645288,0.0023335747197587,0.9910841796747578,0.0064582386039681,0.0018984444798082,0.0004590218454639,0.0001000990555808,-4.900867613031646,18.983534068372315,-1.0894315770512168,-1.118270108814039,6.259433263887685,7.368642363253546,-2.910281545470212,-3.5083690407725348,21.96191117472258,22.151318791275816,0.1894076165532361,0.1666666666666666,good,False,False,ambiguous_boundary,0.1408543470079036,0.0209823108769288,isolated_medium,0.1408543470079036,0.0209823108769288,0.1259142516622757,outlier_low_confidence,0.0314785629155689,True,9701,2.374506736933199
24974,test,1,medium,111001,111,0.1529599720089446,0.1528465447024659,0.6704832181334495,0.1222188945226371,0.0984,0.3050440352281825,0.0,0.5316757075072686,2.4810058868254203,0.0041540935635566,0.0220079123973846,0.5297872828799147,0.7645704499016353,0.0087972554055207,0.0563875165439518,0.4322902709478086,20.0,51.0,3.1,0.8674198344910404,2.16985700609719,0.0877153939136828,0.2109030632446123,0.0,0.0,0.6428571428571429,0.6950399945047988,0.0119296707970525,0.0152,0.775,0.0060849106061102,0.0,0.3333333333332963,0.7527122567308512,-0.3043343469232427,3.0071021887006704,0.0088070456365092,0.4711455364548547,0.0233620731705521,0.1303571127752522,7.648830381609007,0.0136108887109687,0.313301282051282,0.4446631767496364,0.8574057221228532,1.2408161027398656,0.4471852261635854,4.189935029992179,0.1926806393955006,20.0,17.0,10.0,0.761831943394221,0.0132761001586914,0.7645704499016353,0.1678969327920267,0.0513564792129972,0.0139881015370438,0.0021851742955577,0.9730811886763892,0.0168481693229138,0.0081142278408202,0.0018491441098539,0.0001072424072962,-3.816577456190818,16.24104204965473,-0.2836001372821667,-0.2914194977936318,1.5994374982069255,-0.1207307581045295,-2.220291813963553,-0.2600701646963534,16.41547536771376,16.795605616097045,0.3801302483832849,0.0333333333333333,good,False,False,ambiguous_boundary,0.1660707564922845,0.0630410237109522,isolated_medium,0.1660707564922845,0.0630410237109522,0.0990067118303851,outlier_low_confidence,0.0247516779575962,True,9894,2.360129127077572
26827,test,1,medium,111001,111,0.1651975652858148,0.1567345185746889,0.6228346753120423,0.1093805280345375,0.1768,0.5804643714971978,0.1,0.8211860336993804,1.9945326254039737,0.0019942540675401,0.0104765892028808,0.5253361063564286,0.9274310363971566,0.0033391677891298,0.0210324242591092,0.3306118750162206,17.0,24.0,0.7,0.4248360297509557,1.789976029319584,0.0926599362176811,0.0349723299366365,0.0,0.0,0.4285714285714285,0.6752474317374649,0.0052560774225162,0.0152,1.0,0.0022596916562209,0.0,0.1249999999999843,0.7370064226288564,-1.2743149211581235,3.704567220545001,0.0320256204963971,0.1756385860631204,0.0245657161781492,0.0745026053192657,12.981915779476244,0.0208166533226581,0.2788461538461538,0.4455460784449532,0.8474390886651145,1.179126031492359,0.377792793068769,4.189935029992179,0.1926806393955006,17.0,14.0,7.0,0.8656087802229359,0.0101842403411865,0.9274310363971566,0.0472354871840145,0.0191338479611366,0.0054806063227024,0.0007189524596551,0.9910999391357964,0.0063437166695847,0.002046565734157,0.0004446821061881,6.507196149181775e-05,-5.489991127078394,20.945371871461063,-2.432446537163308,0.0353779731073649,6.973342676794844,7.792202876150573,-2.002664650170176,-0.9327142085850044,23.979154490051343,23.94281994394637,-0.0363345461049746,0.1333333333333333,good,False,False,ambiguous_boundary,0.1052879187053067,0.0146782085058336,isolated_medium,0.1052879187053067,0.0146782085058336,0.0969818717852214,outlier_low_confidence,0.0242454679463053,True,9910,2.358873904417234
25009,test,1,medium,111001,111,0.148408601282805,0.144530673140051,0.6712905728816987,0.0982075955977139,0.1504,0.5796637309847879,0.1,0.8121083322952192,1.997166769801322,0.0020126663148403,0.0157857477664947,0.7843162683487517,0.8279448230120088,0.0068489214204755,0.0313761842122768,0.4080829141406512,18.0,32.0,1.4,0.418680623576934,2.06988685667038,0.0850879860444947,0.1186829957879352,0.0,0.0,0.5,0.6391078704548031,0.0054735834881086,0.0152,1.0,0.002927869997343,0.0,0.0,0.757760651635627,-1.2452722925742068,4.736163061589674,0.0224179343474779,0.2505171661549309,0.0208891225877029,0.1022734660661906,13.590166165892636,0.0128102481985588,0.2155448717948718,0.1961990916838508,0.8305466348947071,1.2124005998358185,0.4500330359995186,5.2493385826745405,0.1600169340756103,18.0,16.0,6.0,0.8066905586876981,0.01078262925148,0.8279448230120088,0.1331130364754883,0.0295360607166675,0.0057039733189924,0.0036786233518102,0.9848491627267648,0.0118782952409711,0.0022455409485646,0.0008017881790476,0.000225182282379,-5.413186960338732,20.11202777836809,-1.687932521466973,0.1946575901617423,6.398202036152534,7.307616355072874,-1.6426590310794398,-0.7461506189469072,22.7747788482818,22.786490275974124,0.011711427692326,0.1333333333333333,good,False,False,ambiguous_boundary,0.1124388407978923,0.0177832141512984,isolated_medium,0.1124388407978923,0.0177832141512984,0.1008207878559779,outlier_low_confidence,0.0252051969639944,True,9879,2.3509551542133367
24515,test,1,medium,111001,111,0.2038516605278775,0.194901623504005,0.886788283586502,0.1566262880430443,0.1256,0.4395516413130504,0.0,0.6012506625913948,1.9619032685595856,0.0035308003425598,0.0347173899412154,0.9832697475346583,0.602143377691949,0.0055670110598562,0.0420403557948763,0.5178136170409215,18.0,45.0,2.7,0.8814231790111045,1.8584772621913948,0.0677582532487326,0.256994971830036,0.0,0.0,0.5,0.6854526784220423,0.0100149578517507,0.0152,0.7911929543634909,0.0059619161320744,0.0,0.5714285714285307,0.7627993764857408,-0.7911956459206664,3.4047086046976665,0.0208166533226581,0.4501178563660976,0.0379866489464645,0.0946110541126299,9.626210009987162,0.0184147317854283,0.3381410256410256,0.5265406135005164,0.8334943039958367,1.2402160776995077,0.3593528400947949,3.0912061651652345,0.2444266946297027,18.0,12.0,11.0,0.6447366994451277,0.0248447857797145,0.602143377691949,0.3487593573307128,0.038035198923159,0.0100960923421484,0.0009630818372561,0.9816453464782076,0.0128198116804102,0.0045647604668469,0.0008872825135887,8.278258683611342e-05,-5.160656228627693,15.37207084078898,-1.0806751050159678,-0.6714424940805327,3.0227448021382943,0.15979239618385,-3.317789232333052,-1.9398935018266423,16.593502332342812,16.523294526478566,-0.0702078058642463,0.1333333333333333,good,False,False,ambiguous_boundary,0.0980429055325555,0.0616296575084681,isolated_medium,0.0980429055325555,0.0616296575084681,0.1031119056580102,outlier_low_confidence,0.0257779764145025,True,9862,2.3494217327669293
24826,test,1,medium,111001,111,0.1656441630545078,0.1606639274287178,0.7496785648167134,0.1190657133159911,0.1776,0.6957566052842273,0.2,0.7971330053882325,1.5851957622288697,0.001455083489418,0.0105799674987792,0.7270988136309218,0.8088559930345736,0.001560205607869,0.015969176416705,0.3938624148887044,14.0,21.0,0.7,0.3195836226926453,1.2197738735429082,0.1055408916948873,0.0454675924257468,0.0,0.0,0.2142857142857142,0.6976911685765493,0.0030020513239226,0.0152,1.0,0.0013379089414841,0.0,0.0,0.8155305861540519,-1.041189361772481,4.406245166627414,0.0424339471577261,0.2443305986540511,0.0258129043635418,0.0407551479742859,21.378436055157056,0.0128102481985588,0.2275641025641025,0.5202796940286818,0.8593434111069509,1.1509319823904745,0.2866232496035418,2.943920288775949,0.2535548202751237,14.0,9.0,7.0,0.7251090330353349,0.0090718287974596,0.8088559930345736,0.1730439111539188,0.0149618989217341,0.0028161672142799,0.0003219141368796,0.9966093373589318,0.0027667518366814,0.0004837729973851,0.0001277584096519,1.2355357177260283e-05,-6.811027262404734,22.52480491384511,-3.951929698769932,-0.4369199572324767,10.39024111498385,13.398014902518026,-1.928250106274657,-5.9377221548846535,29.739427156422543,29.5009253655684,-0.2385017908541478,0.3,good,False,False,ambiguous_boundary,0.0677455777192322,0.007527286413248,isolated_medium,0.0677455777192322,0.007527286413248,0.136990967256304,outlier_low_confidence,0.034247741814076,True,9636,2.349038260003022
14297,train,1,medium,105001,105,0.1849585799524523,0.1788392874332873,0.7048828426003454,0.1493853085656883,0.0864,0.4651721377101681,0.0,0.5749038655544543,2.159507311683208,0.0028607249259948,0.042196440696716,1.4750209924479964,0.7532845777383,0.0134066069557292,0.0550942567054908,0.4457343291909921,14.0,38.0,2.4,1.1710740036011813,2.0118388944400984,0.0366274624196826,0.6897109540578992,0.0,0.0,0.2142857142857142,0.7186541957305161,0.0189763093457442,0.0152,0.8373098478783026,0.0155952300000355,0.0,0.5714285714285307,0.5771219926116729,-0.4802341910056774,2.338394329380652,0.0168134507606084,0.3110388855445057,0.0319834971528603,0.1330027604218923,8.08559184149717,0.0152121697357886,0.3958333333333333,0.3623693751480802,0.907281289587746,1.363871262971903,0.5953720398438194,2.449489742783178,0.2898979485566356,14.0,11.0,8.0,0.939392721477524,0.0143546104431152,0.7532845777383,0.1753009650318575,0.0481835964295036,0.0208684042523521,0.0023583793946183,0.9865101458322122,0.0063872553089275,0.0045604366629474,0.0023468228656105,0.0001953230662773,-4.7791170851490925,16.039205957232735,-2.7261115451461024,-2.20715760706295,3.290186481860289,0.6514200308681077,-3.124294350639305,-0.919673209001324,17.393001455779345,17.375418189288077,-0.0175832664912682,0.2,good,False,False,ambiguous_boundary,0.1081106511102747,0.0529732781332329,isolated_medium,0.1081106511102747,0.0529732781332329,0.1292444486262702,outlier_low_confidence,0.0323111121565675,True,9686,2.3445515057135564
24256,test,1,medium,111001,111,0.1910803901275618,0.1787557915146514,0.5856467819213866,0.1407002209370373,0.1648,0.5404323458767014,0.0,0.7911377783803714,2.1534123397515748,0.0024498857092112,0.0192659199237822,0.7863975536324019,0.7113949389069628,0.0151610899812676,0.1044116149803605,0.4702007018840726,18.0,38.0,2.0,0.8061229133395538,1.3798011445838343,0.0262868401000832,0.5369175013874746,0.0,0.0,0.5,0.696156768848776,0.028056198418152,0.0152,0.9727782225780626,0.0164722133444434,0.0,0.39999999999996,0.7276268992188356,0.8369932641245005,2.3706736234234795,0.0248198558847077,0.2755858616853525,0.0319536394249137,0.1001947286758491,9.741139528121431,0.0112089671737389,0.4174679487179487,0.41948663914496,0.8415478530396617,1.3062301820780888,0.6218525404088546,4.189935029992179,0.1926806393955006,18.0,15.0,8.0,0.811727258944688,0.01031404286623,0.7113949389069628,0.1636791689912373,0.0933523984598037,0.0287862356521585,0.002787059838366,0.9867033490031514,0.008275612361824,0.0038453980838582,0.0010843803694335,9.124349864359912e-05,-4.912355919249634,16.79241443331427,-1.2775487371561445,-1.6479057088221454,4.606215091621502,1.924234909339881,-3.2116576791606453,0.5686076137528202,18.16043996101292,18.274534621848343,0.1140946608354269,0.1,good,False,False,ambiguous_boundary,0.1302220549491908,0.0455400828001505,isolated_medium,0.1302220549491908,0.0455400828001505,0.1027079412871659,outlier_low_confidence,0.0256769853217914,True,9868,2.3407876300190766
25514,test,1,medium,111001,111,0.20018826184597,0.1815509204989884,0.6310252022743225,0.145131661951862,0.1232,0.5324259407526021,0.1,0.6756593965110845,1.874896095825617,0.002442467957735,0.0173233270645141,0.709252135097189,0.9283289741919328,0.002360175749127,0.0097450761218601,0.2962535362554994,15.0,32.0,1.7,0.6903802042106443,1.6909045497419732,0.1035595902026991,0.2948264742705137,0.0,0.0,0.2857142857142857,0.718747892673326,0.00249178060854,0.0152,0.9583666933546836,0.0011871262139086,0.0,0.0,0.6555995676840156,-0.7782913122995242,2.245807522803144,0.0240192153722978,0.1557401340487995,0.0329607431030117,0.0635701912059073,17.672556915410425,0.0144115292233787,0.3621794871794871,0.5323291011830298,0.8826250166834969,1.2536325790501424,0.3908401046455368,3.0912061651652345,0.2444266946297027,15.0,9.0,8.0,0.8832599830653608,0.013987427484244,0.9283289741919328,0.0590178332328071,0.0085960905291616,0.0035081371196647,0.0005478805946631,0.996222789795928,0.0022094191990187,0.0012216583998085,0.0003053258802731,4.0790060205015846e-05,-5.571984880715104,21.131788211888576,-2.718454683890109,-1.332544734861859,8.454157243092268,8.25073858677174,-3.812343328208736,-3.465720537780664,25.25781470831526,25.238948939306383,-0.0188657690088724,0.2333333333333333,good,False,False,ambiguous_boundary,0.1078283778697779,0.0121377493413624,isolated_medium,0.1078283778697779,0.0121377493413624,0.1326169865763392,outlier_low_confidence,0.0331542466440848,True,9667,2.32794959965278
25394,test,1,medium,111001,111,0.1699406203626544,0.1625301327925198,0.5663791304826736,0.1280815884140553,0.116,0.4347477982385909,0.1,0.6107413193339538,1.9958156768232167,0.0029664561152458,0.0108564734458923,0.3659732835004149,0.9453564387437032,0.0024239988152035,0.0117468997176525,0.2536859132099038,15.0,29.0,1.4,0.4636723659361991,1.973318473027284,0.0924176364950017,0.0465941465730353,0.0,0.0,0.2857142857142857,0.6269385739001208,0.002269463660208,0.0152,0.7825460368294637,0.0008411354168089,0.0,0.0,0.6771074727265214,-0.6249569678354588,2.400312566029692,0.0072057646116893,0.15231726188701,0.0264160508149515,0.0543810324145607,19.073917233183888,0.0112089671737389,0.3693910256410256,0.5447964427252762,0.9060616325232644,1.283381400410614,0.4514288062594161,4.320493798938574,0.1879524791852022,15.0,13.0,5.0,0.9758387729818206,0.0101243719458579,0.9453564387437032,0.0399952954212091,0.0105193891984272,0.0034436113152743,0.0006823725863522,0.996440871218368,0.0020106091419591,0.0011807822168718,0.0003385285635063,2.9185899812667308e-05,-5.222108835650391,21.834058988104275,-2.592843518850595,-0.6389624413800074,8.068303314652477,6.746775937374274,-3.866899007634111,-4.225374888907461,25.314856556249755,25.31946718835832,0.0046106321085659,0.1666666666666666,good,False,False,ambiguous_boundary,0.1111215656755739,0.0119495671810312,isolated_medium,0.1111215656755739,0.0119495671810312,0.1107279513235478,outlier_low_confidence,0.0276819878308869,True,9802,2.3205869197124946
24043,test,1,medium,111001,111,0.2198431205175735,0.2148526291870768,1.0579931288957596,0.1565358191381499,0.1264,0.3650920736589271,0.2,0.5412181937758235,1.817187688339004,0.0051723346114158,0.044220221415162,0.854935715566279,0.5294239846710751,0.0098553311660157,0.112472509785588,0.5582965974614019,18.0,45.0,2.7,0.8951584495009706,2.3212497539914727,0.1190207163265754,0.1592119700114828,0.0,0.0,0.5,0.699828965490956,0.0272110047219323,0.0152,0.675,0.0149838501021434,0.0,0.3333333333332222,0.829222646313791,-2.366837758884208,15.612140768377287,0.0176140912730184,0.5711628459422167,0.046161657971547,0.2082462787561621,4.902449074639491,0.0136108887109687,0.2924679487179487,0.3915565359173286,0.7393937798600069,1.1718477302407235,0.2825021968145614,3.2998316455372216,0.2325672450543258,18.0,11.0,11.0,0.5571566994660918,0.025205408129841,0.5294239846710751,0.3455245367647582,0.1068472831673299,0.015234549769998,0.0029692650559117,0.8432683273546651,0.1376140543938357,0.0173450344277509,0.0010389002250691,0.0007336697303048,-5.4925522919827925,13.555914000699715,-1.054554242296436,1.2959433494391823,4.731625332208189,5.7752161543324005,0.484367072984033,-8.816180342717544,18.537577916437943,18.16731378353817,-0.3702641328997735,0.3,good,False,False,ambiguous_boundary,0.0501505457282649,0.0420587128340233,isolated_medium,0.0501505457282649,0.0420587128340233,0.1359794881445238,outlier_low_confidence,0.0339948720361309,True,9644,2.319692818125319
25069,test,1,medium,111001,111,0.1534241911792809,0.1502161435703689,0.6716103099286557,0.1098740483863977,0.1064,0.400320256204964,0.1,0.735527598913201,2.2219000878347046,0.0032091960310935,0.0146389693021774,0.4561554839527988,0.8198035305391849,0.0068139090502582,0.047352393636101,0.3416878544289684,21.0,35.0,1.4,0.4749033782656803,1.984957499080664,0.0966873970768986,0.0528529481445569,0.0,0.0,0.7142857142857143,0.720663761014327,0.0093699215444794,0.0152,0.7205764611689351,0.0041802193320142,0.0,0.7499999999999063,0.7403027869768732,-1.0869575847691253,3.9675377941338152,0.0128102481985588,0.2997162839150616,0.0225648967848309,0.1058768251560012,9.304556603535037,0.0144115292233787,0.2772435897435897,0.4503044665988906,0.8651252132099169,1.2183539940155006,0.4022802672560059,4.496912521077348,0.1819203045647174,21.0,15.0,10.0,1.0532056903770033,0.01128840893507,0.8198035305391849,0.1237469183858044,0.0424700211746444,0.0126748418663278,0.0013046011487898,0.9823147742088794,0.0126263863247634,0.003597578345603,0.0013637375522907,9.749792010527704e-05,-4.441973614973353,18.83145575734934,-0.9649847508236876,0.1274836606777303,4.405561350225031,4.280972045633914,-0.6189613106439396,-3.012306440754096,20.155414445946427,20.35936548172308,0.2039510357766545,0.0666666666666666,good,False,False,ambiguous_boundary,0.1422657132103876,0.030109145652992,isolated_medium,0.1422657132103876,0.030109145652992,0.0933747334086061,outlier_low_confidence,0.0233436833521515,True,9947,2.3177147611313957
24299,test,1,medium,111001,111,0.161449516684026,0.1523789579005373,0.6419714644551278,0.0932013322374521,0.2872,0.5308246597277823,0.0,1.1580048521654822,2.146783466055332,0.0023300929460674,0.0185424119234083,0.7957765108491281,0.8874021875873196,0.0048133320880973,0.027740288026414,0.3466819051210166,17.0,39.0,2.2,0.6917206320481124,1.2321590589677165,0.0532941678249771,0.2161371542997601,0.0,0.0,0.4285714285714285,0.6893698985332961,0.0059964154896336,0.0152,0.955484387510008,0.0032874339216258,0.0,0.0,0.7146314819773286,-1.744221937277044,5.208152012607377,0.0176140912730184,0.2657655994217758,0.0232193537632746,0.0779920696741019,12.797281488208258,0.0432345876701361,0.3573717948717949,0.4789063685382627,0.7872169447880457,1.3028183716016803,0.4416625372325679,2.943920288775949,0.2535548202751237,17.0,12.0,10.0,0.6709228845649249,0.0094093893450917,0.8874021875873196,0.0786452904864952,0.0243944307236741,0.0082671473247463,0.0012861983446086,0.9906240492082954,0.0065050703328,0.0021374866499321,0.0006706675094189,6.270121677574364e-05,-4.699049831114216,19.68354601606291,-2.0602494591246034,-1.540953838065894,4.154396424263201,4.815479155043851,-4.016101273519866,2.441462589084432,21.45266169749996,21.68083552369793,0.2281738261979704,0.2,good,False,False,ambiguous_boundary,0.1455589010161836,0.0232404968009032,isolated_medium,0.1455589010161836,0.0232404968009032,0.1401496048174632,outlier_low_confidence,0.0350374012043658,True,9612,2.3128885573303486
24520,test,1,medium,111001,111,0.1476474646256288,0.146513271247813,0.7913363176584244,0.0961886147066601,0.1664,0.3194555644515612,0.0,0.7160898369986868,2.233097884551437,0.0043024905025959,0.0296179736033081,0.6883897767225886,0.6937802618131557,0.0129218569648822,0.09927907994737,0.4939688867757244,18.0,49.0,3.1,2.011548004588024,2.715804311740813,0.0435521821467477,0.5169854926609919,0.0,0.0,0.5,0.6868016069815798,0.0487084476013334,0.0152,0.775,0.0269431721020895,0.0,0.79999999999992,0.7435483415903148,-1.32530771348261,6.011959903647208,0.0152121697357886,0.3575940599906207,0.0214661457214699,0.1712140042043569,5.448311732219371,0.0304243394715772,0.2684294871794871,0.4056919836092898,0.8006797896406234,1.2289487838864388,0.5986712613647733,3.858612300930075,0.2058200856669654,18.0,16.0,9.0,0.7208715882790557,0.0138976514339447,0.6937802618131557,0.1896482697564248,0.0905239730577791,0.023873912257127,0.0021720257763076,0.9477900981416196,0.0346409078994498,0.0145213963306272,0.0027842769710539,0.0002632897228261,-4.415481437466455,15.326931761539509,-1.3222104484925543,-0.8664316329129266,0.82730001752161,0.1729512098409147,-1.757624057504081,1.1630054061896165,15.723557730822291,15.903407478565716,0.1798497477434235,0.1,good,False,False,ambiguous_boundary,0.1392547986450884,0.0697214904027098,isolated_medium,0.1392547986450884,0.0697214904027098,0.1116089574708317,outlier_low_confidence,0.0279022393677079,True,9794,2.3101075398307986
24098,test,1,medium,111001,111,0.1512299085163219,0.1499911983628289,0.6051873013377189,0.1195852233623387,0.0736,0.5252201761409128,0.1,0.6508828126888789,2.006219016774633,0.0023389235138893,0.0137797839939593,0.5891481699728,0.8474822325600142,0.0039525902101123,0.0211799544420675,0.364274844741429,17.0,36.0,1.9,0.5460402067691468,1.3296595182292876,0.1269566632106695,0.0999242473700827,0.0,0.0,0.4285714285714285,0.7456169884244982,0.0039879678285888,0.0152,0.945396317053643,0.0018187968967667,0.0,0.0,0.6799078871192482,0.6438063974696608,2.8684602595757904,0.0208166533226581,0.2012294573557512,0.0224973665864936,0.0585721543888886,17.380363420297925,0.0080064051240992,0.3076923076923077,0.5519779768472642,0.901529735187354,1.2417148809365923,0.3373481414009781,3.2998316455372216,0.2325672450543258,17.0,10.0,10.0,0.971157002085032,0.0104644164443016,0.8474822325600142,0.126181480772012,0.01893740898357,0.0065088686748206,0.0008870591841104,0.995153754378352,0.0033378700552568,0.0010919194377336,0.0003877141802269,2.8713474573703826e-05,-5.015585037977483,21.01311238998096,-2.196806829119674,-0.7423102527932456,6.817997024635333,8.089211309213267,-2.81873789951176,-2.8778493289976628,24.16330333762575,24.26837850612741,0.1050751685016599,0.2,good,False,False,ambiguous_boundary,0.1286225065863756,0.0140195709446744,isolated_medium,0.1286225065863756,0.0140195709446744,0.1306840421528039,outlier_low_confidence,0.0326710105382009,True,9676,2.295310945946851
24149,test,1,medium,111001,111,0.1886972725292125,0.1787213819087962,0.6027854356169701,0.1582392677342286,0.0592,0.578062449959968,0.1,0.5554905343435288,1.7245905316918098,0.0021195262670516,0.0247799705393845,1.1691222709698557,0.8243283506693592,0.0063691971042696,0.025745229939916,0.3822267812039904,14.0,38.0,2.4,0.7206523679620717,1.5121626177680316,0.1527836503144605,0.2826918916261493,0.0,0.0,0.2142857142857142,0.7152437905768955,0.0054568708588025,0.0152,1.0,0.0034698703605852,0.0,0.0,0.6641457226951593,-0.2156152532236147,1.6847605232084648,0.0336269015212169,0.314248934539772,0.0319413387769622,0.0682329511169085,16.645152816750088,0.0048038430744595,0.3405448717948718,0.5379209975949607,0.9108305194779668,1.3382436754901412,0.3649349135912005,3.2998316455372216,0.2325672450543258,14.0,7.0,7.0,0.9231451447824052,0.0167059957981109,0.8243283506693592,0.1420461843310869,0.0231593457878894,0.0088960199819143,0.0015657385670625,0.9952750818865576,0.0030564490407206,0.001066135616757,0.0005277623627217,7.455248644869637e-05,-5.787599401300033,20.05453900373195,-2.809328690169399,-0.3089992062080252,7.789143971703599,7.576790185639028,-2.909991333432807,-4.137496136596433,24.00439884726926,23.838653538173823,-0.1657453090954348,0.2,good,False,False,ambiguous_boundary,0.0813887843432442,0.014584117425668,isolated_medium,0.0813887843432442,0.014584117425668,0.1095417764395935,outlier_low_confidence,0.0273854441098983,True,9805,2.2945307238039523
