idx,split,y,class_name,record_id,subject_id,rms,std,ptp_p99_p01,mean_abs,low_amp_ratio,flatline_ratio,contact_loss_win_ratio,local_rms_cv,baseline_step,diff_abs_median,diff_abs_p95,detail_instability,lf_ratio,hf_ratio,qrs_band_ratio,spectral_entropy,qrs_peak_count,aggressive_peak_count,spurious_peak_density,qrs_prom_median,qrs_prom_p90,qrs_width_median,qrs_slope_median,qrs_count_low,qrs_count_high,qrs_count_deviation,periodicity,qrs_visibility,clipping_like_ratio,fatal_or_score,medium_detail_unreliable_score,sqi_iSQI,sqi_bSQI,sqi_pSQI,sqi_sSQI,sqi_kSQI,sqi_fSQI,sqi_basSQI,hjorth_activity,hjorth_mobility,hjorth_complexity,zero_crossing_rate,diff_zero_crossing_rate,sample_entropy_proxy,amplitude_entropy,higuchi_fd_proxy,template_corr,detector_count_std,detector_agreement,rr_count_detector_a,rr_count_detector_b,rr_count_detector_c,non_qrs_rms_ratio,non_qrs_diff_p95,band_0p3_1,band_1_5,band_5_15,band_15_30,band_30_45,wavelet_e0,wavelet_e1,wavelet_e2,wavelet_e3,wavelet_e4,pc1,pc2,pc3,pc4,pc5,pc6,pc7,pc8,pca_own_distance,pca_nearest_other_distance,pca_margin,knn_label_purity,nearest_other_class,is_clean_strict,is_clean_train_target,clean_tier,class_margin_percentile,class_centrality_percentile,ambiguous_type,pca_margin_rank,own_centrality_rank,boundary_confidence,original_region,region_confidence,selected_l7150,selected_l7150_rank,slice
20587,train,0,good,105001,105,0.2879210799296428,0.2726059283129017,1.7609394798055285,0.1234220691175869,0.4272,0.4467574059247398,0.0,0.0981784470599379,0.1004143833823329,0.0049622673541307,0.0831121131777762,1.6748784327540924,0.1808960639644428,0.1049173949069682,0.436019154252275,0.7664302840685062,18.0,32.0,1.4,4.19751508802598,7.064624596647017,0.0561717537330816,1.8888687483434976,0.0,0.0,0.5,0.6877683050720838,0.7625820744342714,0.0152,0.8393391592557461,0.7625820744342714,0.0,0.8888888888887901,0.6135320239161255,4.476617738559162,27.58997842062898,0.0144115292233787,0.8944549345206725,0.0743139966992204,0.5730335249063506,1.7953504982675192,0.0512409927942353,0.3862179487179487,0.2274823824612575,0.5462889001488545,1.336931283239101,0.8709886353946754,4.242640687119285,0.1907435698305462,18.0,18.0,9.0,0.1492192640389777,0.0224681407213211,0.1808960639644428,0.2410174564775217,0.3631693548155401,0.1950863419585684,0.0197878920321601,0.6089704664153319,0.1569046987881842,0.1921376273611559,0.0348378561245901,0.0071493410162051,-6.29967543205211,1.3753846145715003,-2.424238615531178,3.9186839671805385,0.6118375662903073,-0.9814256161558144,0.6409669977646983,0.3589883518804145,5.209978551584723,9.09902086327762,3.889042311692898,1.0,medium,True,True,clean_core_strict,0.944610690606114,0.4665845215044299,clean_or_target,0.944610690606114,0.4665845215044299,1.0483917150736373,clean_core,1.0483917150736373,True,1421,added
20236,train,0,good,105001,105,0.3233991952139291,0.307708685050606,1.8203652796521768,0.1265474398105638,0.5184,0.4435548438751001,0.0,0.0174539619986473,0.0681522026995032,0.0056056156754493,0.1071859425865113,1.9121138083826623,0.0022233443251452,0.1344812661193305,0.4803087651622439,0.780563040325819,17.0,35.0,1.8,7.045615711083938,7.268448821629561,0.0215224621740626,3.9386163668867513,0.0,0.0,0.4285714285714285,0.6881224673974073,1.2085967792851542,0.0152,1.0,1.2085967792851542,0.0,0.8181818181817438,0.5848706096111033,4.9413046105238925,31.348600393704388,0.0088070456365092,0.936484966994926,0.0946846387013994,0.6219266591417056,1.6786044377642646,0.0464371497197758,0.3886217948717949,0.2311917593696154,0.568127411048834,1.3798733017357585,0.8746875629236017,3.2998316455372216,0.2325672450543258,17.0,17.0,10.0,0.2099666378859521,0.0384567275876178,0.0022233443251452,0.3419073550365275,0.3988740460123932,0.2326901674741747,0.0242854157992534,0.4664602374431368,0.2964258936154669,0.1726275432823372,0.0584916531584946,0.0059946646244519,-6.497935611173423,-2.8286866756948785,-3.3356539809893064,1.8395968702699728,1.7778028767629963,-0.745854683558511,0.2277096828687548,2.242436514144137,5.694761928952968,9.78397574476096,4.089213815807991,1.0,medium,True,True,clean_core_strict,0.9813413131490936,0.383852608108901,clean_or_target,0.9813413131490936,0.383852608108901,1.048374112538872,clean_core,1.048374112538872,True,1422,added
19511,train,0,good,105001,105,0.3228404619842579,0.3095118478390917,2.029368529245257,0.1310306828594097,0.424,0.4315452361889512,0.0,0.1140012402491948,0.2586771006793306,0.0065853521227836,0.1458979956805703,2.215489337720711,0.0101950077770155,0.1441814905478781,0.4999042167350774,0.815067743131659,13.0,39.0,2.6,6.803598013253039,7.051773252791546,0.0208447500736683,3.9547479982765705,0.0,0.0,0.1428571428571428,0.7664978648500627,0.9447631488321082,0.0152,1.0,0.9447631488321082,0.0,0.8181818181817438,0.5862287201548361,4.711295216263205,28.804157493822345,0.0144115292233787,0.9442828046790144,0.0957975877625322,0.6338908979407287,1.6505596730087249,0.0712570056044835,0.3429487179487179,0.2425250760599587,0.5768329078450446,1.3672719246175422,0.8227288754613794,0.9428090415820634,0.5147186257614297,13.0,11.0,13.0,0.3048282934011115,0.0604036450386047,0.0101950077770155,0.3080655403024929,0.416425671714053,0.2389382782391539,0.026374168941861,0.463236267428834,0.253488980566195,0.1917838140148274,0.0861308522840877,0.0053600767396074,-6.102567155250115,-2.508945122426145,-4.437141744092619,0.042706804900691,0.7774516555623594,0.5369138721280216,-0.2016796771607162,1.053595404123555,5.321828451269261,9.246740225497424,3.924911774228163,1.0,medium,True,True,clean_core_strict,0.95223845567095,0.4490993369711905,clean_or_target,0.95223845567095,0.4490993369711905,1.0483271724461656,clean_core,1.0483271724461656,True,1423,added
20204,train,0,good,105001,105,0.3233991979974875,0.3089554665439111,2.058407115712762,0.1260526784241898,0.4864,0.4619695756605284,0.0,0.1196133267753958,0.1414985616421825,0.0055798273533582,0.1386232465505593,2.4843599870725246,0.00891739386157,0.1375632126789101,0.4923987663833594,0.7673932340345292,16.0,34.0,1.8,6.741002813367749,6.94445708252074,0.0215358909292872,3.837030032608787,0.0,0.0,0.3571428571428571,0.6957422834015585,1.185450524817513,0.0152,1.0,1.185450524817513,0.0,0.9090909090908263,0.5810438100733539,4.8992704051990765,30.3535138115454,0.0136108887109687,0.9440734568446498,0.0954534841282565,0.6318674242522763,1.649925094906142,0.0496397117694155,0.3782051282051282,0.2848990374103382,0.5357166880776394,1.4020249368247073,0.8793372058901474,2.357022603955158,0.2978830106243031,16.0,16.0,11.0,0.2253538347369867,0.0395645797252655,0.00891739386157,0.3212955289468418,0.4056520923088808,0.2397725876297251,0.0243594926930076,0.4654931605633716,0.2743234187128223,0.1879282319938045,0.0652683065961326,0.0069868741071978,-6.551037592625522,-2.638630105197725,-3.776649665402818,1.4319501999054691,1.8312824063478528,-0.1310049594752742,0.4752868127283605,2.039548108429884,5.710941024605802,9.805595186157843,4.094654161552043,1.0,medium,True,True,clean_core_strict,0.9826908408144106,0.3803907762717831,clean_or_target,0.9826908408144106,0.3803907762717831,1.0482890336208412,clean_core,1.0482890336208412,True,1424,added
20261,train,0,good,105001,105,0.3233991957755912,0.3079709249101694,2.033588708080351,0.1270964250662568,0.5224,0.4179343474779823,0.0,0.0179660706041489,0.0485021111291107,0.0059889435069635,0.0957078969106077,1.5980738003613664,0.0063345081992582,0.1290483664785311,0.4628155571290709,0.767389013920108,19.0,34.0,1.5,6.593540263467514,7.227498125206039,0.021865929220216,3.811211441486576,0.0,0.0,0.5714285714285714,0.6752686250277389,1.2206372041958715,0.0152,1.0,1.2206372041958715,0.0,0.89999999999991,0.5906027229372303,4.887172854756845,30.844879196753546,0.0072057646116893,0.9006065936709525,0.0948460944306068,0.6168322776028514,1.6899051606119992,0.0608486789431545,0.4310897435897436,0.2819722647829122,0.5380446479949437,1.3767423151110054,0.8713042294814544,4.242640687119285,0.1907435698305462,19.0,19.0,10.0,0.1376482578934869,0.0279030609875917,0.0063345081992582,0.3620073370429906,0.3834328440904783,0.2254762004763631,0.0227448214630683,0.4566390194468446,0.2899130172502744,0.1978390110195463,0.0497001412353837,0.0059088023956268,-6.41881487825372,-2.6579940577322865,-2.543632404781768,2.389015910087854,2.019865423227633,-0.9460035349050548,0.0978515816916584,2.396416822256185,5.561430421054782,9.595138541679106,4.033708120624324,1.0,medium,True,True,clean_core_strict,0.9712491932171566,0.405914451681042,clean_or_target,0.9712491932171566,0.405914451681042,1.048245027283929,clean_core,1.048245027283929,True,1425,added
19481,train,0,good,105001,105,0.3233991961790863,0.3095563899103287,1.726913584545254,0.1296147692904429,0.4304,0.4091273018414731,0.0,0.1037189489169103,0.2758915791713687,0.0069412626326084,0.1171192312613128,1.6872875834197187,0.006382411973848,0.142354794053331,0.4910772598264663,0.7759978503606365,13.0,45.0,3.2,6.949956006627438,7.237739361900368,0.0209072848748946,4.099130638354192,0.0,0.0,0.1428571428571428,0.7687682121212611,0.8126107980116887,0.0152,1.0,0.8126107980116887,0.0,0.9090909090908263,0.5839394623749157,4.75992338868155,29.29667337996285,0.0048038430744595,0.958208929557188,0.0958251623431877,0.6364644114685453,1.6443392041504523,0.0728582866293034,0.3477564102564102,0.2605405479699008,0.5636599583281168,1.3633999028864,0.838427004697277,0.816496580927726,0.5505102572168219,13.0,12.0,11.0,0.3005382254147691,0.0583109181374311,0.006382411973848,0.3229161186344911,0.4070687840582225,0.2387394526108801,0.0248827729364756,0.4607582497374959,0.2483974198693618,0.2206703134725757,0.0638088426010927,0.0063651651804081,-5.685635559412295,-2.605204962681541,-4.023327676393267,-0.2420371519962916,-0.0777641258461287,0.4850145111607423,-0.8287295205739518,0.8663030316272884,4.897671907466203,8.654151242396612,3.756479334930408,1.0,medium,True,True,clean_core_strict,0.9211993193686556,0.5180425981341313,clean_or_target,0.9211993193686556,0.5180425981341313,1.0481482133427211,clean_core,1.0481482133427211,True,1426,added
19429,train,0,good,105001,105,0.3233991958487262,0.3107929608122512,2.072042847126722,0.1335661756788671,0.3648,0.377101681345076,0.0,0.0208743496155095,0.1617971959981489,0.0073642525821924,0.1191573634743687,1.6180488154035142,0.0148726519138135,0.1267151593402713,0.4931234797453245,0.8097106082413379,12.0,46.0,3.4,6.908172752595692,7.38608342985347,0.0216325477389165,4.101610322343607,0.0,0.0,0.0714285714285714,0.8246656110159106,0.7742232241913237,0.0152,1.0,0.7742232241913237,0.0,0.89999999999991,0.5963317843169011,4.910438809897277,31.19976517345759,0.0088070456365092,0.930703916174817,0.0965922682745863,0.6170208335809009,1.684578707126816,0.0576461168935148,0.3549679487179487,0.2397453662906431,0.5522458158556521,1.3617716844199892,0.8741210843197558,0.9428090415820634,0.5147186257614297,12.0,14.0,12.0,0.2625725638465095,0.0457891464233398,0.0148726519138135,0.3280599627983229,0.4044672138706367,0.2303384691670327,0.0222497972675838,0.4162583233542946,0.3688712827047993,0.1404167420882806,0.0693020957732847,0.0051515474603058,-6.062991692814405,-2.7566712678270253,-3.7702411269510137,-0.3965651314916389,-0.276462957083317,0.5880348618216658,-0.9548141112312524,0.2736654685427382,4.959733118700639,8.73833564447731,3.7786025257766713,1.0,medium,True,True,clean_core_strict,0.9258346535234409,0.5071290265798275,clean_or_target,0.9258346535234409,0.5071290265798275,1.048051399401514,clean_core,1.048051399401514,True,1427,added
20468,train,0,good,105001,105,0.3132965451546493,0.2976535236791061,1.9284610316157325,0.1221793594373273,0.5616,0.5076060848678943,0.0,0.192951934206712,0.2378783951457514,0.0043526254594326,0.0849109143018722,1.9507931480423355,0.1135400500582972,0.1150040596347378,0.46013228953719,0.8004121907341099,18.0,30.0,1.2,4.240889775112019,7.457031970955528,0.0574056388342247,2.091523252393356,0.0,0.0,0.5,0.6765824127376782,0.8869865099532509,0.0152,0.920032477077903,0.8869865099532509,0.0,0.8888888888887901,0.6094499385712392,4.996121032490564,32.48518865631801,0.0184147317854283,0.9077086436856964,0.0885976242055178,0.5929301932415441,1.742614508080207,0.0360288230584467,0.4246794871794871,0.2311862192222665,0.5397650806741273,1.3521175637354388,0.8751002716416125,4.242640687119285,0.1907435698305462,18.0,18.0,9.0,0.0760430484583084,0.0161314487457275,0.1135400500582972,0.2774324373656435,0.3792254388942955,0.2103698450978307,0.0193997026735481,0.5732290409735007,0.1893099093297399,0.1669945329685474,0.0639375590123599,0.0065289483052798,-7.0303043177364,0.3083235472197128,-2.445453771451692,4.205962287133965,1.179427342724085,-0.0851256306590871,0.6167997099099166,1.27114304685188,5.716700095922671,9.809508159453706,4.092808063531035,1.0,medium,True,True,clean_core_strict,0.9822801150032272,0.3795106495335328,clean_or_target,0.9822801150032272,0.3795106495335328,1.047928181658159,clean_core,1.047928181658159,True,1428,added
20112,train,0,good,105001,105,0.3233991973186132,0.3093581310279825,2.0834680538624526,0.1306501021919481,0.4264,0.4539631705364291,0.0,0.0955279446402921,0.1623419677069308,0.0058863684535026,0.1266592547297475,2.151734818449869,0.0243404632919258,0.1300739245266191,0.4977217878674659,0.7462278269327869,14.0,33.0,1.9,6.725622780892353,7.001433083539481,0.0214095577137941,3.84106616184463,0.0,0.0,0.2142857142857142,0.7302767831883193,1.1543065500096208,0.0152,1.0,1.1543065500096208,0.0,0.89999999999991,0.5975687743777506,4.827049534825472,29.729719527294765,0.0152121697357886,0.9435219386920928,0.0957024570459639,0.6184873533671001,1.6733623051388735,0.0520416333066453,0.358974358974359,0.235897411774744,0.5588784692093606,1.3627084249327754,0.9017061349938552,1.4142135623730951,0.4142135623730951,14.0,14.0,11.0,0.2471260520241933,0.0445796534419059,0.0243404632919258,0.3077079296425937,0.4185909284348151,0.2260235354552607,0.0233182306535694,0.4579787400296192,0.2946778965187359,0.1724397943118197,0.0696522050360543,0.0052513552772748,-6.704259122290311,-2.546397602110139,-4.456068267460037,0.6991760095619644,1.412620793812369,0.0206956536809986,0.0852012605907319,1.4186625469883003,5.786964954645733,9.89968447299609,4.112719518350356,1.0,medium,True,True,clean_core_strict,0.9860939975356452,0.3696532300651294,clean_or_target,0.9860939975356452,0.3696532300651294,1.0476729449040665,clean_core,1.0476729449040665,True,1429,added
19931,train,0,good,105001,105,0.3233991982504748,0.3110281205716241,2.0996068463474504,0.1307205212544533,0.4088,0.4411529223378703,0.0,0.0291927767567489,0.1789055726413519,0.0057961656711995,0.0875674933195113,1.510780526453379,0.0107056561856233,0.1338036942900168,0.4947856517643406,0.8101146918420529,14.0,34.0,2.0,7.138828866817527,7.342836258010158,0.02140077842043,3.861280818808901,0.0,0.0,0.2142857142857142,0.7252515707480726,1.1773966979007997,0.0152,1.0,1.1773966979007997,0.0,0.89999999999991,0.5934814212519036,5.035632203427764,32.410241482720366,0.010408326661329,0.932270865297126,0.0967384955657544,0.6191214155553255,1.6729379107263584,0.0424339471577261,0.3733974358974359,0.2047024794683139,0.5879096332415816,1.3630643291874018,0.9048814066623204,1.8856180831641267,0.3465462064555278,14.0,14.0,10.0,0.2388595156531878,0.0422154203057287,0.0107056561856233,0.3216905398577498,0.4101246940842068,0.2356596471148328,0.0218166851865309,0.4806689962628478,0.2404896280554654,0.2066131642162722,0.0657228006125575,0.0065054017845755,-6.702639476956403,-2.805755136122727,-4.276504649887797,0.8809716291319307,1.3715491633293635,-0.5117201545277582,-0.2856434317891869,1.557034039922223,5.827942180895734,9.95675871702674,4.128816536131005,1.0,medium,True,True,clean_core_strict,0.9892037786774628,0.3626122161591269,clean_or_target,0.9892037786774628,0.3626122161591269,1.0476641436366836,clean_core,1.0476641436366836,True,1430,added
24120,test,1,medium,111001,111,0.1698745022920628,0.1691530730029748,0.8694499063491821,0.1317215153813987,0.1056,0.1977582065652522,0.0,0.3548322466490057,1.476598198580328,0.0078382678329944,0.0792690701782701,1.0113072267557908,0.3179283433392623,0.0644362329454507,0.2575759900507972,0.7219514844286793,22.0,72.0,5.0,1.3812832426854045,3.56407619154213,0.0343241787217914,0.8064588608345231,0.0,0.0,0.7857142857142857,0.7248592827522106,0.0592975664625447,0.0152,1.0,0.0464876466573189,0.0,0.692307692307639,0.6643236820618084,-0.1166767909406413,3.677454327732258,0.0144115292233787,0.5625362745758559,0.0286127687232883,0.2528141446819595,4.128191882752509,0.0424339471577261,0.3501602564102564,0.4891208028212692,0.8208548702964203,1.417781067794881,0.3435408871331605,3.299831645537222,0.2325672450543257,22.0,17.0,14.0,0.7355060552146888,0.0423481315374374,0.3179283433392623,0.3380671239002469,0.226950835630042,0.1029221797930749,0.0141161062943884,0.900875499213962,0.0574074495925607,0.0323629641051723,0.0086904215513456,0.0006636440101237,-2.073086184556576,9.554763652879412,0.8621226846595496,-1.2669618174495627,0.0517626527991168,-0.2448427784655381,-1.5991194953544268,0.5325116886291333,9.28862263764876,10.385704768452523,1.0970821308037646,0.8666666666666667,good,False,False,ambiguous_boundary,0.2827436958976289,0.1868648852088822,isolated_medium,0.2827436958976289,0.1868648852088822,0.4679409735290428,outlier_low_confidence,0.1169852433822607,True,5582,added
4488,train,1,medium,100001,100,0.185087441023305,0.1812531916260914,1.0790401943027972,0.0998195730716979,0.2216,0.1729383506805444,0.0,0.2320768737163533,1.27305831028439,0.0106135793030262,0.2865382254123687,2.6997297260284,0.1416051807174803,0.1264802977794491,0.5181624255655009,0.7998895245866084,25.0,72.0,4.7,4.442466698610772,5.121885587574511,0.0228606658331491,3.017722012034213,0.0,1.0,1.0,0.7535666236333284,0.4038454947449333,0.0152,1.0,0.4038454947449333,0.0,0.94117647058818,0.6116050870317657,2.656401581529619,12.61862503859353,0.0144115292233787,0.8876530395911444,0.0328527258495808,0.6031405786224533,1.744503122653012,0.0872698158526821,0.4294871794871794,0.4499010913811708,0.6633917484048149,1.4070763781694595,0.6929921101816149,3.299831645537222,0.2325672450543257,25.0,25.0,18.0,0.5309382310327544,0.0596623574383556,0.1416051807174803,0.1679296737625947,0.4354660670491269,0.2379031951611372,0.0170682285385862,0.5014207011426917,0.2186847076572576,0.1984225931377642,0.0764648988149977,0.0050070719896918,-0.9757689828043234,2.57562733536844,1.2820793790254057,-0.6756301819079895,-0.2021436488400992,0.0584646758049471,2.352974478990375,2.222292267766134,3.799376503034953,5.5706810244901055,1.7713045214551522,0.4,good,False,False,ambiguous_boundary,0.4488144523899134,0.6295634173880316,good_medium_low_purity,0.4488144523899134,0.6295634173880316,0.4678791870530673,outlier_low_confidence,0.1169697967632668,True,5583,added
24067,test,1,medium,111001,111,0.1444362129725878,0.1440831964763108,0.7439601269364355,0.1052907233301666,0.1624,0.2137710168134507,0.0,0.5386518926473429,2.082027673115127,0.0076517630368471,0.0967787277884779,1.2647882696263992,0.4864704841287969,0.0552460853197217,0.2001168792844378,0.6396761838447054,21.0,72.0,5.1,1.994212559551352,2.95182096350922,0.0249192350487655,0.975433219669632,0.0,0.0,0.7142857142857143,0.7060189299518397,0.0654222285323356,0.0152,1.0,0.0593094021325337,0.0,0.39999999999998,0.6151364800388188,-0.5611603299136682,4.263571308826341,0.0112089671737389,0.5065726570826474,0.0207599746251673,0.2771744394960859,4.442660801962624,0.0544435548438751,0.3878205128205128,0.5634167342585921,0.8349905256077347,1.460882105574442,0.4436800707633205,2.3570226039551585,0.297883010624303,21.0,16.0,16.0,0.7726157725236937,0.0658828855957835,0.4864704841287969,0.2485711471471482,0.1757305668209335,0.0734396539615926,0.0156924963434119,0.907043576668864,0.0549284958291548,0.0283904188840668,0.0084230445104114,0.0012144331449312,-1.6486608500402724,11.476344561283335,0.0163931703722066,-2.3323362376212766,0.1160181756483755,1.0823864932167089,-1.853917885047656,2.1513094637820056,11.492334008175222,12.687821290148625,1.1954872819734028,0.8666666666666667,good,False,False,ambiguous_boundary,0.3019382762514113,0.1423598042905532,isolated_medium,0.3019382762514113,0.1423598042905532,0.4676775185045791,outlier_low_confidence,0.1169193796261447,True,5584,added
7600,train,1,medium,100001,100,0.3067653189934772,0.2999501268605791,1.9241697648167608,0.1448552829943713,0.244,0.1016813450760608,0.0,0.1776576863099051,0.6585179863654224,0.0265359003096818,0.3929720001295209,1.4809064228188211,0.0326509331501634,0.1298981501529837,0.6113656391729094,0.8341181084077152,28.0,84.0,5.6,4.891444627337388,5.796917028325422,0.0236660771734663,3.105491477280474,0.0,1.0,1.0,0.7861371607336456,0.4531001774350024,0.0152,1.0,0.4531001774350024,0.0,0.9999999999999332,0.6317474208203243,3.865348952535099,19.939482969437208,0.0032025620496397,0.9660808127634536,0.089970082604675,0.6446530798834761,1.6764055346296491,0.1289031224979984,0.4631410256410256,0.469263084925504,0.6454307631274062,1.458733962698233,0.5124118651686614,2.8284271247461903,0.2612038749637414,28.0,22.0,22.0,0.3468027499493075,0.1780913681723175,0.0326509331501634,0.1860884987129108,0.5088953360167298,0.2531428549595367,0.0191354699083682,0.3405857999299666,0.3196890456799715,0.231396847851334,0.1010281173016896,0.0073001783766543,-0.978174051742491,-1.7788055635292146,3.144530885622606,-0.6554243881032362,1.2163717298856591,-0.1329234710002899,-0.1328726386797541,-0.192208625867172,3.379690917018945,5.00145540619449,1.6217644891755447,0.4,good,False,False,ambiguous_boundary,0.4055325555137373,0.7257245013172752,good_medium_low_purity,0.4055325555137373,0.7257245013172752,0.4676345502446368,outlier_low_confidence,0.1169086375611592,True,5585,added
5823,train,1,medium,100001,100,0.2732052766834399,0.2714840397414991,1.7899781039357183,0.1446508141034282,0.2368,0.1265012009607686,0.0,0.142826843237475,0.4273762453629556,0.0214368253946304,0.2283091917633999,1.0650321633788704,0.017725981572063,0.1300385382626069,0.6054285310440953,0.7828051597862009,23.0,82.0,5.9,4.859625524039342,6.020300961509324,0.0228276716691175,3.2489442365398022,0.0,1.0,0.8571428571428571,0.7636737754090023,0.4263994119483378,0.0152,1.0,0.4019991201417099,0.0,0.923076923076852,0.6223648153253597,3.485412715813831,18.98365747586564,0.0016012810248198,0.977932773433842,0.0737035884046831,0.6059466145961431,1.7691809091957182,0.1080864691753402,0.4663461538461538,0.4166881604314471,0.6892413657647628,1.42617673183127,0.5838521351336255,1.8856180831641267,0.3465462064555278,23.0,19.0,23.0,0.3750615186262275,0.0758621314540506,0.017725981572063,0.2044995839039636,0.512781073798248,0.2450733460303877,0.0198222308033139,0.3745215055944031,0.3637386018776548,0.1941471803576771,0.0600525472942287,0.0075401525543429,-1.4480372352794004,-1.4409282020503755,1.8831079191206224,-1.0719896215139115,0.0070043066951535,-0.3536074675679743,-0.723729717286075,-0.3341938548491633,2.606109252030904,3.8549438436977166,1.248834591666813,0.4333333333333333,good,False,False,ambiguous_boundary,0.314264207753105,0.872412495295446,good_medium_low_purity,0.314264207753105,0.872412495295446,0.467568059214653,outlier_low_confidence,0.1168920148036632,True,5586,added
3100,train,1,medium,100001,100,0.1817389340327702,0.1809606047981593,0.916067104935646,0.1394005765384529,0.1232,0.1681345076060848,0.0,0.238463107707273,1.2039845018019757,0.0086306184530258,0.233477621898055,2.705221562587368,0.2134448131186245,0.1115189579647664,0.4990269012302825,0.6395803823387719,21.0,72.0,5.1,3.174733345266177,3.655579365134986,0.0227457303291303,2.103845322574243,0.0,0.0,0.7142857142857143,0.9628713432950482,0.2597175972984638,0.0152,1.0,0.2597175972984638,0.0,0.9499999999999524,0.6544378177051492,0.860003108572747,4.389439414911567,0.0056044835868694,0.8717274270220907,0.0327467468697036,0.4445580691360513,2.379414771194808,0.0488390712570056,0.4302884615384615,0.4461683572710144,0.8736168098378575,1.4067489950550625,0.976747914005188,2.6246692913372702,0.275887238151612,21.0,20.0,15.0,0.663287366078906,0.0274622350931167,0.2134448131186245,0.1260199359448812,0.437624719064806,0.2091131354950115,0.0137592140334399,0.7716862119998492,0.1084009399687813,0.0848302761060136,0.0326814436745851,0.0024011063056408,-1.1250641163695263,4.621208556760664,0.2186943626678819,-3.1964341148505206,-0.7316437556521739,-0.3644234678571844,1.7015690187227537,-0.754701547560696,5.095752923255541,7.011008074081326,1.915255150825785,0.6666666666666666,good,False,False,ambiguous_boundary,0.492472713586752,0.3546292811441475,good_medium_boundary,0.492472713586752,0.3546292811441475,0.5258719106762012,good_medium_overlap,0.4627672813950571,True,7106,added
6728,train,1,medium,100001,100,0.1989242764136718,0.1934314605956927,0.979084640741348,0.1527231438271701,0.0832,0.1681345076060848,0.0,0.3837707890317403,1.180059509232505,0.0091381967067718,0.1786295309662817,1.954754764235184,0.1047702426015124,0.1398622478965308,0.608074308495245,0.786937906918657,19.0,77.0,5.8,2.706043032653442,3.362526281168106,0.0225765262359748,2.1482224763757283,0.0,0.0,0.5714285714285714,0.8627342303278516,0.2419816537998702,0.0152,1.0,0.2419816537998702,0.0,0.944444444444392,0.6106987813361946,0.3103030038661058,3.947940852499948,0.0016012810248198,0.8722132904772236,0.0374157360795539,0.3867258410623226,2.8406694477907792,0.0376301040832666,0.5192307692307693,0.4414188500968333,0.8130903413873009,1.4390717604143497,0.8002610826730475,2.160246899469287,0.3164309725825327,19.0,18.0,14.0,0.7183927964174308,0.0308678640052676,0.1047702426015124,0.0983907761473939,0.5154294189678746,0.2581934843194254,0.0231747447493219,0.8376190465794575,0.0780045349551374,0.0604782962094207,0.0217942076269714,0.0021038955089473,-1.0703625129839256,4.097822631682409,0.252549104941017,-3.46776318343548,-0.3251669849553109,-0.8642673923778041,0.5781299155725543,-1.4392599678463431,4.804430366897434,6.742452871023729,1.9380225041262944,0.6333333333333333,good,False,False,ambiguous_boundary,0.4993413624388408,0.3970643582988333,good_medium_boundary,0.4993413624388408,0.3970643582988333,0.5257831514239116,good_medium_overlap,0.4626891732530422,True,7107,added
23161,test,1,medium,111001,111,0.2604394604736634,0.256769311869612,1.6076757065951823,0.126972813894425,0.2272,0.0672538030424339,0.0,0.1402122610455431,0.3814245932089835,0.0327870910987257,0.4645172938704489,1.4167684189942045,0.0285400308898683,0.19920116603738,0.5965376676120259,0.756633002501896,20.0,86.0,6.6,5.519501921158899,6.9347496541694005,0.0182174536398523,3.4437373162857563,0.0,0.0,0.6428571428571429,0.932978256671991,0.4332356318984507,0.0152,1.0,0.4332356318984507,0.0,0.8947368421052162,0.5612512140695782,3.927988714476682,21.38710292956224,0.0016012810248198,0.9737213566370694,0.0659304843826079,0.7418442510871331,1.5962363151778087,0.1705364291433146,0.5288461538461539,0.497705124204935,0.636457580412118,1.567355176007204,0.9534806255501396,1.8856180831641267,0.3465462064555278,20.0,20.0,24.0,0.2698450206999278,0.1310537438839674,0.0285400308898683,0.1299068728772322,0.4779404526082788,0.3079618531019711,0.055618895830331,0.3052902376467628,0.3088846455431265,0.2629902953167876,0.1056363179477492,0.0171984872921529,-0.2317131130010367,-2.636189526285319,0.3193899994946562,-2.001532650213068,-0.7871437022929753,1.2041691193888189,0.7402227509315918,-0.1364707306494282,3.89892582455804,5.214579009128755,1.3156531845707151,0.7333333333333333,good,False,False,ambiguous_boundary,0.3282837786977794,0.6053820097854723,good_medium_boundary,0.3282837786977794,0.6053820097854723,0.5254707690377618,good_medium_overlap,0.4624142767532304,True,7108,added
24549,test,1,medium,111001,111,0.1658852362680143,0.1655969472437227,0.9252204737067222,0.1172488565887091,0.1624,0.11048839071257,0.0,0.3743845597863759,1.0956080457066093,0.0117783546447753,0.0812543869018554,0.6898613632062919,0.3391067821742821,0.0386888362112022,0.2941636558471898,0.672132786057145,22.0,71.0,4.9,2.8358493890622016,3.557689354153837,0.0246080409674216,1.5656213658529574,0.0,0.0,0.7857142857142857,0.7307229069911142,0.1413904785963655,0.0152,1.0,0.0740925358736507,0.0,0.9166666666665902,0.7516668255569495,0.0811217324828963,4.961253653706843,0.0056044835868694,0.6444094250078897,0.0274223556245014,0.3112873381544909,3.232959767920959,0.0576461168935148,0.3709935897435897,0.5378429586302478,0.8016522330721946,1.3295008889479554,0.5676356298006977,2.449489742783178,0.2898979485566356,22.0,19.0,16.0,0.6780136192472099,0.0453635804355144,0.3391067821742821,0.3161847365455326,0.2670469435394346,0.0694441058569618,0.008217029708339,0.8129272070176818,0.1347609151112933,0.0407538833887808,0.0106168254635862,0.0009411459033458,-1.9773093712358576,8.073876699455115,0.7317826863513321,-1.876000789719666,-1.0281252410541182,-0.1575802545876998,-1.8024795185394529,1.075091720592224,7.993100102024679,9.282525597733644,1.2894254957089668,0.9666666666666668,good,False,False,ambiguous_boundary,0.322261949567181,0.210199473089951,good_medium_boundary,0.322261949567181,0.210199473089951,0.5253911052565551,good_medium_overlap,0.4623441726257685,True,7109,added
2727,train,1,medium,100001,100,0.2295702434626785,0.2257399701946782,1.386276975572109,0.1185025770293199,0.2392,0.0848678943154523,0.0,0.0860581487708978,0.5068531197437844,0.0222494099289178,0.3789223313331602,1.7030661138300935,0.0351843601274585,0.167098626884418,0.6334400036699877,0.74755824669893,20.0,86.0,6.6,5.006494763767533,5.462682250367852,0.0215757094268349,3.817124510252513,0.0,0.0,0.6428571428571429,0.9268766285594824,0.4172781659914052,0.0152,1.0,0.4172781659914052,0.0,0.944444444444392,0.5806717214572918,3.1755893176359367,15.034430534968052,0.0040032025620496,0.9733652427338828,0.0509585396286949,0.7069325597893414,1.6053075633382128,0.1433146517213771,0.5264423076923077,0.5119445251047812,0.6827440316205352,1.4819059219587452,0.9663698648360132,0.4714045207910317,0.6796227589829592,20.0,20.0,21.0,0.2739837626267587,0.0983809292316437,0.0351843601274585,0.1052516423066675,0.5149767826285864,0.3197778809364119,0.0247844204645671,0.2807621432479717,0.3494024133575502,0.2562334447590018,0.10126518884439,0.0123367895240754,-0.1365227085068054,-1.822037501981992,-0.719953751427022,-2.8535841035230853,-2.1418961380097907,1.407674038162113,0.8982268843890423,-0.4310696576426495,4.500361283579102,5.869701769808379,1.3693404862292766,0.8,good,False,False,ambiguous_boundary,0.3422092585622883,0.4542717350395182,good_medium_boundary,0.3422092585622883,0.4542717350395182,0.5248485133609333,good_medium_overlap,0.4618666917576213,True,7110,added
