pc1_cut,pc3_cut,flatline_cut,qrs_visibility_cut,non_qrs_diff_p95_cut,train_acc,train_macro_f1,train_good_recall,train_medium_recall,train_bad_recall,train_flips,test_acc,test_macro_f1,test_good_recall,test_medium_recall,test_bad_recall,test_flips,rank_score
-2.526588962399171,0.9236126636548955,0.1585268214571657,0.527038498994941,0.06899095394182937,0.9948374494209572,0.9951913091937814,0.9914485165794066,0.994610907523173,1.0,558,0.9448362720403023,0.6402901523331258,0.9978260869565218,0.9607446377984622,0.0,133,1.5826694335047036
-2.526588962399171,0.5221459578606138,0.1585268214571657,0.527038498994941,0.06899095394182937,0.9949072136179713,0.9952567661478594,0.9910994764397906,0.9952575986203923,1.0,559,0.945088161209068,0.6404729490611628,0.9978260869565218,0.9611493322541481,0.0,134,1.582598720197284
-2.526588962399171,0.9236126636548955,0.1585268214571657,0.527038498994941,0.0658296225592494,0.9949072136179713,0.9952567661478594,0.9910994764397906,0.9952575986203923,1.0,559,0.9465994962216625,0.641570801112748,0.9978260869565218,0.9635774989882638,0.0,140,1.582598720197284
-2.526588962399171,0.5221459578606138,0.1585268214571657,0.47814795419915657,0.06292294085025782,0.9947676852239431,0.9951234513642461,0.993891797556719,0.991377452037077,1.0,557,0.9486146095717884,0.6430405638485029,0.9992753623188406,0.9660056657223796,0.0,148,1.5825716247642532
-2.526588962399171,0.5221459578606138,0.1585268214571657,0.527038498994941,0.0658296225592494,0.9949769778149854,0.9953222078060348,0.9907504363001746,0.9959042897176116,1.0,560,0.9468513853904282,0.641753956006314,0.9978260869565218,0.9639821934439499,0.0,141,1.582528003830684
-2.526588962399171,0.9236126636548955,0.1585268214571657,0.527038498994941,0.06292294085025782,0.9949072136179713,0.9952571441914114,0.9907504363001746,0.9956887260185385,1.0,559,0.9478589420654912,0.6424870922806588,0.9978260869565218,0.9656009712666936,0.0,145,1.582459179750148
-2.526588962399171,0.5221459578606138,0.1585268214571657,0.47814795419915657,0.0658296225592494,0.9947676852239431,0.9951230484186141,0.9942408376963351,0.9909463246389308,1.0,557,0.9473551637279597,0.6421239769662545,0.9992753623188406,0.9639821934439499,0.0,143,1.5823990932158685
-2.526588962399171,0.9236126636548955,0.1585268214571657,0.527038498994941,0.07265520706772798,0.9945583926329008,0.9949309724476426,0.9914485165794066,0.9937486527268808,1.0,554,0.9428211586901764,0.6388295976694428,0.9978260869565218,0.9575070821529745,0.0,125,1.5823941207250305
-2.526588962399171,0.5221459578606138,0.1585268214571657,0.527038498994941,0.06292294085025782,0.9949769778149854,0.9953225788383495,0.9904013961605584,0.9963354171157577,1.0,560,0.9481108312342569,0.6426705060297508,0.9978260869565218,0.9660056657223796,0.0,146,1.5823884619813005
-2.526588962399171,0.5221459578606138,0.1585268214571657,0.527038498994941,0.07265520706772798,0.9946281568299149,0.9949964625961353,0.9910994764397906,0.9943953438241,1.0,555,0.9430730478589421,0.6390119910701199,0.9978260869565218,0.9579117766086604,0.0,126,1.582323414056494
-2.526588962399171,0.2036190182156168,0.1585268214571657,0.47814795419915657,0.06292294085025782,0.9944188642388726,0.9947990963498876,0.9928446771378708,0.99159301573615,1.0,556,0.9486146095717884,0.6430405638485029,0.9992753623188406,0.9660056657223796,0.0,148,1.582258111095343
-2.526588962399171,0.9236126636548955,0.1585268214571657,0.47814795419915657,0.06292294085025782,0.994697921026929,0.995057920074975,0.9942408376963351,0.9907307609398577,1.0,556,0.9483627204030227,0.6428571428571429,0.9992753623188406,0.9656009712666936,0.0,147,1.5822440307099
-2.526588962399171,0.5221459578606138,0.1585268214571657,0.47814795419915657,0.06899095394182937,0.994697921026929,0.9950575098124276,0.9945898778359511,0.9902996335417116,1.0,556,0.9455919395465995,0.6408429157147765,0.9992753623188406,0.9611493322541481,0.0,136,1.5820714976981323
-2.526588962399171,0.9236126636548955,0.1585268214571657,0.47814795419915657,0.0658296225592494,0.994697921026929,0.9950575098124276,0.9945898778359511,0.9902996335417116,1.0,556,0.947103274559194,0.6419408145071862,0.9992753623188406,0.9635774989882638,0.0,142,1.5820714976981323
-2.526588962399171,0.2036190182156168,0.1585268214571657,0.47814795419915657,0.0658296225592494,0.9943491000418585,0.9947337609977952,0.9930191972076788,0.9911618883380039,1.0,555,0.9473551637279597,0.6421239769662545,0.9992753623188406,0.9639821934439499,0.0,143,1.5820167817080548
-2.526588962399171,0.5221459578606138,0.1841473178542834,0.47814795419915657,0.06292294085025782,0.9940700432538021,0.9944743789538203,0.9921465968586387,0.991377452037077,1.0,547,0.9498740554156171,0.6439558660562629,0.9978260869565218,0.9688385269121813,0.0,153,1.5818836967060552
-2.526588962399171,-0.070056743853622,0.1585268214571657,0.47814795419915657,0.06292294085025782,0.994000279056788,0.9944097137303305,0.9917975567190227,0.99159301573615,1.0,550,0.9486146095717884,0.6430405638485029,0.9992753623188406,0.9660056657223796,0.0,148,1.581845366425764
-2.526588962399171,0.2036190182156168,0.1585268214571657,0.47814795419915657,0.06899095394182937,0.9943491000418585,0.9947331100899038,0.993542757417103,0.9905151972407846,1.0,553,0.9455919395465995,0.6408429157147765,0.9992753623188406,0.9611493322541481,0.0,136,1.5817858807663947
-2.526588962399171,0.9236126636548955,0.1585268214571657,0.47814795419915657,0.06899095394182937,0.9946281568299149,0.9949919552534473,0.9949389179755672,0.9896529424444923,1.0,555,0.9453400503778338,0.6406601109728887,0.9992753623188406,0.9607446377984622,0.0,135,1.581743898989837
-2.526588962399171,0.5221459578606138,0.1841473178542834,0.47814795419915657,0.0658296225592494,0.9940700432538021,0.9944739266272649,0.9924956369982548,0.9909463246389308,1.0,547,0.9486146095717884,0.6430374898536928,0.9978260869565218,0.9668150546337515,0.0,148,1.5817111552814858
-2.526588962399171,-0.070056743853622,0.1585268214571657,0.47814795419915657,0.0658296225592494,0.9938607506627599,0.9942794738263446,0.9917975567190227,0.9911618883380039,1.0,548,0.9473551637279597,0.6421239769662545,0.9992753623188406,0.9639821934439499,0.0,143,1.581535244770486
-2.526588962399171,0.2036190182156168,0.1841473178542834,0.47814795419915657,0.06292294085025782,0.9937909864657458,0.994215056737802,0.9912739965095986,0.99159301573615,1.0,547,0.9498740554156171,0.6439558660562629,0.9978260869565218,0.9688385269121813,0.0,153,1.5815113932638039
-2.526588962399171,0.9236126636548955,0.1841473178542834,0.47814795419915657,0.06292294085025782,0.993930514859774,0.9943439013714356,0.9923211169284468,0.9907307609398577,1.0,545,0.9496221662468514,0.643772085649342,0.9978260869565218,0.9684338324564954,0.0,152,1.581487302035468
-2.526588962399171,0.5221459578606138,0.1585268214571657,0.47814795419915657,0.07265520706772798,0.9944188642388726,0.9947969452564025,0.9945898778359511,0.9894373787454193,1.0,552,0.9435768261964735,0.6393818918360027,0.9992753623188406,0.9579117766086604,0.0,128,1.581451237437965
-2.526588962399171,0.2036190182156168,0.1585268214571657,0.527038498994941,0.06899095394182937,0.9944188642388726,0.9948028653759439,0.9897033158813263,0.9954731623194654,1.0,560,0.945088161209068,0.6404729490611628,0.9978260869565218,0.9611493322541481,0.0,134,1.5814471736010136
-2.526588962399171,0.2036190182156168,0.1841473178542834,0.47814795419915657,0.0658296225592494,0.9937212222687317,0.9941497004154621,0.9914485165794066,0.9911618883380039,1.0,546,0.9486146095717884,0.6430374898536928,0.9978260869565218,0.9668150546337515,0.0,148,1.581397667373087
-2.526588962399171,0.5221459578606138,0.1841473178542834,0.527038498994941,0.0658296225592494,0.9944188642388726,0.9948034807107099,0.9891797556719023,0.9961198534166846,1.0,552,0.9486146095717884,0.6430374898536928,0.9978260869565218,0.9668150546337515,0.0,148,1.5813494952994198
-2.526588962399171,0.9236126636548955,0.1841473178542834,0.47814795419915657,0.0658296225592494,0.993930514859774,0.9943434366235865,0.9926701570680628,0.9902996335417116,1.0,545,0.9483627204030227,0.6428539718536072,0.9978260869565218,0.9664103601780656,0.0,147,1.5813147581266398
-2.526588962399171,-0.070056743853622,0.1585268214571657,0.47814795419915657,0.06899095394182937,0.9938607506627599,0.9942787713897437,0.9923211169284468,0.9905151972407846,1.0,546,0.9455919395465995,0.6408429157147765,0.9992753623188406,0.9611493322541481,0.0,136,1.5813043335230836
-2.526588962399171,0.9236126636548955,0.1841473178542834,0.527038498994941,0.0658296225592494,0.9942793358448444,0.9946731476667886,0.9893542757417103,0.9954731623194654,1.0,550,0.9483627204030227,0.6428539718536072,0.9978260869565218,0.9664103601780656,0.0,147,1.581281614003336
-2.526588962399171,0.5221459578606138,0.1841473178542834,0.47814795419915657,0.06899095394182937,0.9938607506627599,0.9942785363448682,0.9924956369982548,0.9902996335417116,1.0,544,0.9463476070528968,0.6413876976873619,0.9978260869565218,0.9631728045325779,0.0,139,1.581245966713285
-2.526588962399171,0.5221459578606138,0.1841473178542834,0.527038498994941,0.06292294085025782,0.9944188642388726,0.9948038889000387,0.9888307155322862,0.9965509808148307,1.0,552,0.9498740554156171,0.6439558660562629,0.9978260869565218,0.9688385269121813,0.0,153,1.5812099608814392
-2.526588962399171,0.2036190182156168,0.1585268214571657,0.527038498994941,0.07265520706772798,0.9941398074508162,0.9945425757737071,0.9897033158813263,0.994610907523173,1.0,556,0.9430730478589421,0.6390119910701199,0.9978260869565218,0.9579117766086604,0.0,126,1.5811718702501212
-2.526588962399171,0.2036190182156168,0.1585268214571657,0.47814795419915657,0.07265520706772798,0.9940700432538021,0.9944725592196311,0.993542757417103,0.9896529424444923,1.0,549,0.9435768261964735,0.6393818918360027,0.9992753623188406,0.9579117766086604,0.0,128,1.581165623243378
-2.526588962399171,0.5221459578606138,0.1841473178542834,0.527038498994941,0.06899095394182937,0.9942095716478303,0.9946082925073565,0.9891797556719023,0.9954731623194654,1.0,549,0.9463476070528968,0.6413876976873619,0.9978260869565218,0.9631728045325779,0.0,139,1.5811430235859152
-2.526588962399171,0.9236126636548955,0.1841473178542834,0.527038498994941,0.06292294085025782,0.9942793358448444,0.9946735677284776,0.9890052356020942,0.9959042897176116,1.0,550,0.9496221662468514,0.643772085649342,0.9978260869565218,0.9684338324564954,0.0,152,1.5811420819598272
-2.526588962399171,0.9236126636548955,0.1585268214571657,0.47814795419915657,0.07265520706772798,0.9943491000418585,0.9947313560981063,0.9949389179755672,0.9887906876482,1.0,551,0.9433249370277078,0.6391994899149446,0.9992753623188406,0.9575070821529745,0.0,127,1.5811236318098068
-2.526588962399171,0.5221459578606138,0.2073658927141713,0.47814795419915657,0.0658296225592494,0.9934421654806753,0.9938899357703731,0.9909249563699826,0.9909463246389308,1.0,538,0.9486146095717884,0.6430359314063021,0.9971014492753624,0.9672197490894374,0.0,148,1.5810835075840268
-2.526588962399171,0.5221459578606138,0.2073658927141713,0.47814795419915657,0.06292294085025782,0.9935119296776894,0.9939553046001236,0.9907504363001746,0.991377452037077,1.0,539,0.9498740554156171,0.6439545531242179,0.9971014492753624,0.9692432213678672,0.0,153,1.581082584679665
-2.526588962399171,0.9236126636548955,0.1841473178542834,0.527038498994941,0.06899095394182937,0.9940700432538021,0.9944779351180792,0.9893542757417103,0.9948264712222462,1.0,547,0.9460957178841309,0.6412046456294244,0.9978260869565218,0.9627681100768919,0.0,138,1.5810751374207603
-2.526588962399171,0.2036190182156168,0.1585268214571657,0.527038498994941,0.0658296225592494,0.9943491000418585,0.9947386276969213,0.9890052356020942,0.9961198534166846,1.0,563,0.9468513853904282,0.641753956006314,0.9978260869565218,0.9639821934439499,0.0,141,1.581043471238294
-2.526588962399171,0.2036190182156168,0.1585268214571657,0.527038498994941,0.06292294085025782,0.9944188642388726,0.9948038889000387,0.9888307155322862,0.9965509808148307,1.0,564,0.9481108312342569,0.6426705060297508,0.9978260869565218,0.9660056657223796,0.0,146,1.5810425268086052
-2.526588962399171,0.2036190182156168,0.1841473178542834,0.47814795419915657,0.06899095394182937,0.9935816938747035,0.9940192055908454,0.9916230366492147,0.9905151972407846,1.0,542,0.9463476070528968,0.6413876976873619,0.9978260869565218,0.9631728045325779,0.0,139,1.581029174932859
-2.526588962399171,0.9236126636548955,0.2073658927141713,0.47814795419915657,0.06292294085025782,0.9933724012836612,0.9938248094901022,0.9909249563699826,0.9907307609398577,1.0,537,0.9496221662468514,0.6437707233446871,0.9971014492753624,0.9688385269121813,0.0,152,1.5809369927983112
-2.526588962399171,0.5221459578606138,0.1841473178542834,0.527038498994941,0.07265520706772798,0.993930514859774,0.9943480041796812,0.9891797556719023,0.994610907523173,1.0,545,0.9443324937027707,0.6399247110727474,0.9978260869565218,0.9599352488870903,0.0,131,1.580867720489935
-2.526588962399171,0.9236126636548955,0.1841473178542834,0.47814795419915657,0.06899095394182937,0.9937212222687317,0.9941480209260315,0.9926701570680628,0.9896529424444923,1.0,542,0.9460957178841309,0.6412046456294244,0.9978260869565218,0.9627681100768919,0.0,138,1.5808495644754073
-2.526588962399171,0.9236126636548955,0.1841473178542834,0.527038498994941,0.07265520706772798,0.9937909864657458,0.9942176141511728,0.9893542757417103,0.9939642164259539,1.0,543,0.944080604534005,0.6397420663404914,0.9978260869565218,0.9595305544314043,0.0,130,1.5807998277969344
-2.526588962399171,-0.070056743853622,0.1841473178542834,0.47814795419915657,0.06292294085025782,0.9934421654806753,0.9938906789011795,0.9904013961605584,0.99159301573615,1.0,544,0.9498740554156171,0.6439558660562629,0.9978260869565218,0.9688385269121813,0.0,153,1.5807905150900012
-2.526588962399171,0.9236126636548955,0.2073658927141713,0.47814795419915657,0.0658296225592494,0.9933026370866471,0.993759425992376,0.9910994764397906,0.9902996335417116,1.0,536,0.9483627204030227,0.6428523647066694,0.9971014492753624,0.9668150546337515,0.0,147,1.5806956537818964
-2.526588962399171,-0.070056743853622,0.1841473178542834,0.47814795419915657,0.06899095394182937,0.993232872889633,0.9936948054793676,0.9907504363001746,0.9905151972407846,1.0,537,0.9463476070528968,0.6413876976873619,0.9978260869565218,0.9631728045325779,0.0,139,1.5806852381225067
-2.526588962399171,-0.070056743853622,0.1585268214571657,0.47814795419915657,0.07265520706772798,0.9935816938747035,0.9940182236160563,0.9923211169284468,0.9896529424444923,1.0,542,0.9435768261964735,0.6393818918360027,0.9992753623188406,0.9579117766086604,0.0,128,1.5806840766193841
-2.526588962399171,-0.070056743853622,0.1841473178542834,0.47814795419915657,0.0658296225592494,0.9933026370866471,0.9937604408550315,0.9904013961605584,0.9911618883380039,1.0,542,0.9486146095717884,0.6430374898536928,0.9978260869565218,0.9668150546337515,0.0,148,1.5806528447655492
-2.526588962399171,0.5221459578606138,0.2073658927141713,0.47814795419915657,0.06899095394182937,0.993232872889633,0.9936945486257015,0.9909249563699826,0.9902996335417116,1.0,535,0.9460957178841309,0.641202606204176,0.9971014492753624,0.9631728045325779,0.0,138,1.5806268669509502
-2.526588962399171,0.5221459578606138,0.1841473178542834,0.47814795419915657,0.07265520706772798,0.9935816938747035,0.9940179769466101,0.9924956369982548,0.9894373787454193,1.0,540,0.9443324937027707,0.6399247110727474,0.9978260869565218,0.9599352488870903,0.0,131,1.580625707484671
-2.526588962399171,0.2036190182156168,0.2073658927141713,0.47814795419915657,0.0658296225592494,0.993232872889633,0.9936955730696111,0.9902268760907504,0.9911618883380039,1.0,539,0.9486146095717884,0.6430359314063021,0.9971014492753624,0.9672197490894374,0.0,148,1.5805421575017364
-2.526588962399171,0.2036190182156168,0.2073658927141713,0.47814795419915657,0.06292294085025782,0.9933026370866471,0.9937609453470486,0.9900523560209424,0.99159301573615,1.0,540,0.9498740554156171,0.6439545531242179,0.9971014492753624,0.9692432213678672,0.0,153,1.5805412352869117
-2.526588962399171,0.2036190182156168,0.2073658927141713,0.47814795419915657,0.06899095394182937,0.9930933444956048,0.9935650631128358,0.9904013961605584,0.9905151972407846,1.0,535,0.9460957178841309,0.641202606204176,0.9971014492753624,0.9631728045325779,0.0,138,1.5805021465018876
-2.526588962399171,0.2036190182156168,0.1841473178542834,0.47814795419915657,0.07265520706772798,0.9933026370866471,0.9937586596979023,0.9916230366492147,0.9896529424444923,1.0,538,0.9443324937027707,0.6399247110727474,0.9978260869565218,0.9599352488870903,0.0,131,1.580408918405308
-2.526588962399171,0.5221459578606138,0.2073658927141713,0.527038498994941,0.0658296225592494,0.993930514859774,0.9943495609475947,0.987958115183246,0.9961198534166846,1.0,545,0.9486146095717884,0.6430359314063021,0.9971014492753624,0.9672197490894374,0.0,148,1.5803793756480553
-2.526588962399171,0.5221459578606138,0.2073658927141713,0.527038498994941,0.06292294085025782,0.994000279056788,0.9944148354952739,0.987783595113438,0.9965509808148307,1.0,546,0.9498740554156171,0.6439545531242179,0.9971014492753624,0.9692432213678672,0.0,153,1.580378433887279
-2.526588962399171,0.9236126636548955,0.2073658927141713,0.527038498994941,0.0658296225592494,0.9937909864657458,0.9942192130432764,0.9881326352530541,0.9954731623194654,1.0,543,0.9483627204030227,0.6428523647066694,0.9971014492753624,0.9668150546337515,0.0,147,1.5803114913798924
-2.526588962399171,0.9236126636548955,0.2073658927141713,0.527038498994941,0.06292294085025782,0.9938607506627599,0.9942845016233139,0.987958115183246,0.9959042897176116,1.0,544,0.9496221662468514,0.6437707233446871,0.9971014492753624,0.9688385269121813,0.0,152,1.5803105524255878
-2.526588962399171,-0.070056743853622,0.1585268214571657,0.527038498994941,0.06899095394182937,0.9938607506627599,0.9942840535095661,0.9883071553228622,0.9954731623194654,1.0,554,0.945088161209068,0.6404729490611628,0.9978260869565218,0.9611493322541481,0.0,134,1.5803105504646566
-2.526588962399171,0.9236126636548955,0.2073658927141713,0.47814795419915657,0.06899095394182937,0.9930933444956048,0.9935640135030505,0.9910994764397906,0.9896529424444923,1.0,533,0.9458438287153652,0.6410195580479158,0.9971014492753624,0.9627681100768919,0.0,137,1.5802304607723094
-2.526588962399171,0.9236126636548955,0.1841473178542834,0.47814795419915657,0.07265520706772798,0.9934421654806753,0.9938874274611532,0.9926701570680628,0.9887906876482,1.0,538,0.944080604534005,0.6397420663404914,0.9978260869565218,0.9595305544314043,0.0,130,1.5802292984334696
-2.526588962399171,0.5221459578606138,0.2073658927141713,0.527038498994941,0.06899095394182937,0.9937212222687317,0.9941543750125437,0.987958115183246,0.9954731623194654,1.0,542,0.9460957178841309,0.641202606204176,0.9971014492753624,0.9631728045325779,0.0,138,1.5801729043882113
-2.526588962399171,0.2036190182156168,0.1841473178542834,0.527038498994941,0.06899095394182937,0.9937909864657458,0.9942194396462382,0.987958115183246,0.9956887260185385,1.0,551,0.9463476070528968,0.6413876976873619,0.9978260869565218,0.9631728045325779,0.0,139,1.580130105957339
-2.526588962399171,0.9236126636548955,0.2073658927141713,0.527038498994941,0.06899095394182937,0.9935816938747035,0.9940240028173163,0.9881326352530541,0.9948264712222462,1.0,540,0.9458438287153652,0.6410195580479158,0.9971014492753624,0.9627681100768919,0.0,137,1.5801050152618663
-2.526588962399171,-0.070056743853622,0.2073658927141713,0.47814795419915657,0.06899095394182937,0.9928840519045625,0.9933704684084709,0.9898778359511344,0.9905151972407846,1.0,532,0.9460957178841309,0.641202606204176,0.9971014492753624,0.9631728045325779,0.0,138,1.5800863694044112
-2.526588962399171,-0.070056743853622,0.1841473178542834,0.47814795419915657,0.07265520706772798,0.9929538161015766,0.9934342620510099,0.9907504363001746,0.9896529424444923,1.0,533,0.9443324937027707,0.6399247110727474,0.9978260869565218,0.9599352488870903,0.0,131,1.5800649820878732
-2.526588962399171,-0.070056743853622,0.1585268214571657,0.527038498994941,0.06292294085025782,0.993930514859774,0.9943500017591598,0.98760907504363,0.9965509808148307,1.0,559,0.9481108312342569,0.6426705060297508,0.9978260869565218,0.9660056657223796,0.0,146,1.5800445080028824
-2.526588962399171,-0.070056743853622,0.1585268214571657,0.527038498994941,0.07265520706772798,0.9935816938747035,0.9940237674068828,0.9883071553228622,0.994610907523173,1.0,550,0.9430730478589421,0.6390119910701199,0.9978260869565218,0.9579117766086604,0.0,126,1.5800352478136748
-2.526588962399171,0.5221459578606138,0.2073658927141713,0.47814795419915657,0.07265520706772798,0.9929538161015766,0.9934339935738192,0.9909249563699826,0.9894373787454193,1.0,531,0.944080604534005,0.639739651698097,0.9971014492753624,0.9599352488870903,0.0,130,1.5800066085916116
-2.526588962399171,0.2036190182156168,0.1841473178542834,0.527038498994941,0.0658296225592494,0.9938607506627599,0.9942849479486524,0.98760907504363,0.9963354171157577,1.0,556,0.9486146095717884,0.6430374898536928,0.9978260869565218,0.9668150546337515,0.0,148,1.5800035915619755
-2.526588962399171,-0.070056743853622,0.2073658927141713,0.47814795419915657,0.0658296225592494,0.9929538161015766,0.9934361269538258,0.9895287958115183,0.9911618883380039,1.0,537,0.9486146095717884,0.6430359314063021,0.9971014492753624,0.9672197490894374,0.0,148,1.5799598850576355
-2.526588962399171,-0.070056743853622,0.2073658927141713,0.47814795419915657,0.06292294085025782,0.9930235802985907,0.9935015082091324,0.9893542757417103,0.99159301573615,1.0,540,0.9498740554156171,0.6439545531242179,0.9971014492753624,0.9692432213678672,0.0,153,1.5799310589595794
-2.526588962399171,0.2036190182156168,0.2073658927141713,0.47814795419915657,0.07265520706772798,0.9928142877075485,0.9933045207056419,0.9904013961605584,0.9896529424444923,1.0,531,0.944080604534005,0.639739651698097,0.9971014492753624,0.9599352488870903,0.0,130,1.5799274111035773
-2.526588962399171,-0.070056743853622,0.1585268214571657,0.527038498994941,0.0658296225592494,0.9937909864657458,0.9942198914955606,0.98760907504363,0.9961198534166846,1.0,557,0.9468513853904282,0.641753956006314,0.9978260869565218,0.9639821934439499,0.0,141,1.57990686323494
-2.526588962399171,0.5221459578606138,0.2073658927141713,0.527038498994941,0.07265520706772798,0.9934421654806753,0.993894089835084,0.987958115183246,0.994610907523173,1.0,538,0.944080604534005,0.639739651698097,0.9971014492753624,0.9599352488870903,0.0,130,1.5798976019222741
-2.526588962399171,0.2036190182156168,0.1841473178542834,0.527038498994941,0.07265520706772798,0.9935119296776894,0.9939591651335021,0.987958115183246,0.9948264712222462,1.0,547,0.9443324937027707,0.6399247110727474,0.9978260869565218,0.9599352488870903,0.0,131,1.5798548056243464
-2.526588962399171,0.9236126636548955,0.2073658927141713,0.527038498994941,0.07265520706772798,0.9933026370866471,0.9937636850733135,0.9881326352530541,0.9939642164259539,1.0,536,0.9438287153652393,0.6395570111226766,0.9971014492753624,0.9595305544314043,0.0,129,1.5798297062826208
-2.526588962399171,-0.070056743853622,0.2073658927141713,0.47814795419915657,0.07265520706772798,0.9926049951165062,0.9931099275708464,0.9898778359511344,0.9896529424444923,1.0,528,0.944080604534005,0.639739651698097,0.9971014492753624,0.9599352488870903,0.0,130,1.5797210584037842
-2.526588962399171,0.2036190182156168,0.1841473178542834,0.527038498994941,0.06292294085025782,0.9937909864657458,0.9942205658795985,0.9870855148342059,0.9967665445139039,1.0,559,0.9498740554156171,0.6439558660562629,0.9978260869565218,0.9688385269121813,0.0,153,1.5796696683491724
-2.526588962399171,0.9236126636548955,0.2073658927141713,0.47814795419915657,0.07265520706772798,0.9928142877075485,0.9933034244786779,0.9910994764397906,0.9887906876482,1.0,529,0.9438287153652393,0.6395570111226766,0.9971014492753624,0.9595305544314043,0.0,129,1.5796101956184732
-2.526588962399171,0.2036190182156168,0.2073658927141713,0.527038498994941,0.06899095394182937,0.9933724012836612,0.9938304616910365,0.9869109947643979,0.9956887260185385,1.0,545,0.9460957178841309,0.641202606204176,0.9971014492753624,0.9631728045325779,0.0,138,1.5792985940530917
-2.526588962399171,-0.070056743853622,0.1841473178542834,0.527038498994941,0.06899095394182937,0.9933724012836612,0.9938304616910365,0.9869109947643979,0.9956887260185385,1.0,547,0.9463476070528968,0.6413876976873619,0.9978260869565218,0.9631728045325779,0.0,139,1.579270688374286
-2.526588962399171,0.2036190182156168,0.2073658927141713,0.527038498994941,0.0658296225592494,0.9934421654806753,0.9938959968637237,0.9865619546247818,0.9963354171157577,1.0,550,0.9486146095717884,0.6430359314063021,0.9971014492753624,0.9672197490894374,0.0,148,1.5791720850317825
-2.526588962399171,0.2036190182156168,0.2073658927141713,0.527038498994941,0.07265520706772798,0.9930933444956048,0.9935701900438149,0.9869109947643979,0.9948264712222462,1.0,541,0.944080604534005,0.639739651698097,0.9971014492753624,0.9599352488870903,0.0,130,1.579023294293202
-2.526588962399171,-0.070056743853622,0.1841473178542834,0.527038498994941,0.07265520706772798,0.9930933444956048,0.9935701900438149,0.9869109947643979,0.9948264712222462,1.0,543,0.9443324937027707,0.6399247110727474,0.9978260869565218,0.9599352488870903,0.0,131,1.5789953886143966
-2.526588962399171,-0.070056743853622,0.1841473178542834,0.527038498994941,0.0658296225592494,0.9933724012836612,0.993831180092327,0.9863874345549738,0.9963354171157577,1.0,553,0.9486146095717884,0.6430374898536928,0.9978260869565218,0.9668150546337515,0.0,148,1.5789776909343576
-2.526588962399171,0.2036190182156168,0.2073658927141713,0.527038498994941,0.06292294085025782,0.9933724012836612,0.9938316566160376,0.9860383944153578,0.9967665445139039,1.0,553,0.9498740554156171,0.6439545531242179,0.9971014492753624,0.9692432213678672,0.0,153,1.5788381701832535
-2.526588962399171,-0.070056743853622,0.1841473178542834,0.527038498994941,0.06292294085025782,0.9933724012836612,0.9938316566160376,0.9860383944153578,0.9967665445139039,1.0,557,0.9498740554156171,0.6439558660562629,0.9978260869565218,0.9688385269121813,0.0,153,1.578782358825642
-2.526588962399171,-0.070056743853622,0.2073658927141713,0.527038498994941,0.06899095394182937,0.9930933444956048,0.9935711912593287,0.9862129144851658,0.9956887260185385,1.0,543,0.9460957178841309,0.641202606204176,0.9971014492753624,0.9631728045325779,0.0,138,1.5787163567458067
-2.526588962399171,0.5221459578606138,0.2305844675740592,0.47814795419915657,0.06292294085025782,0.9923259383284498,0.9928528039424093,0.987783595113438,0.991377452037077,1.0,524,0.9503778337531487,0.6443223715526581,0.9971014492753624,0.9700526102792392,0.0,155,1.5786986493152302
-2.526588962399171,0.5221459578606138,0.2305844675740592,0.47814795419915657,0.0658296225592494,0.9921864099344216,0.9927225643468217,0.987783595113438,0.9909463246389308,1.0,522,0.9488664987405542,0.6432195505180327,0.9971014492753624,0.9676244435451234,0.0,149,1.5785609786808903
-2.526588962399171,0.5221459578606138,0.2305844675740592,0.527038498994941,0.06292294085025782,0.9930933444956048,0.9935721844352908,0.9855148342059337,0.9965509808148307,1.0,535,0.9503778337531487,0.6443223715526581,0.9971014492753624,0.9700526102792392,0.0,155,1.5785489459845288
-2.526588962399171,0.5221459578606138,0.2305844675740592,0.47814795419915657,0.06899095394182937,0.9920468815403934,0.9925920168660958,0.987958115183246,0.9902996335417116,1.0,518,0.9460957178841309,0.641202606204176,0.9971014492753624,0.9631728045325779,0.0,138,1.578520960176251
-2.526588962399171,0.9236126636548955,0.2305844675740592,0.47814795419915657,0.06292294085025782,0.9921166457374075,0.9926574404415422,0.987783595113438,0.9907307609398577,1.0,521,0.9498740554156171,0.6439545531242179,0.9971014492753624,0.9692432213678672,0.0,153,1.5784921425422227
-2.526588962399171,-0.070056743853622,0.2073658927141713,0.527038498994941,0.07265520706772798,0.9928142877075485,0.9933109216229132,0.9862129144851658,0.9948264712222462,1.0,539,0.944080604534005,0.639739651698097,0.9971014492753624,0.9599352488870903,0.0,130,1.5784410573880783
-2.526588962399171,0.2036190182156168,0.2305844675740592,0.47814795419915657,0.06292294085025782,0.9922561741314357,0.9927882603458448,0.987434554973822,0.99159301573615,1.0,527,0.9503778337531487,0.6443223715526581,0.9971014492753624,0.9700526102792392,0.0,155,1.5784345018248482
-2.526588962399171,-0.070056743853622,0.2073658927141713,0.527038498994941,0.0658296225592494,0.9930933444956048,0.9935719368946075,0.9856893542757417,0.9963354171157577,1.0,549,0.9486146095717884,0.6430359314063021,0.9971014492753624,0.9672197490894374,0.0,148,1.5784233647526758
-2.526588962399171,-0.070056743853622,0.2305844675740592,0.47814795419915657,0.06899095394182937,0.9920468815403934,0.9925923137928229,0.987783595113438,0.9905151972407846,1.0,520,0.9460957178841309,0.641202606204176,0.9971014492753624,0.9631728045325779,0.0,138,1.5784233058548678
-2.526588962399171,0.2036190182156168,0.2305844675740592,0.47814795419915657,0.06899095394182937,0.9920468815403934,0.9925923137928229,0.987783595113438,0.9905151972407846,1.0,520,0.9460957178841309,0.641202606204176,0.9971014492753624,0.9631728045325779,0.0,138,1.5784233058548678
-2.526588962399171,0.5221459578606138,0.2305844675740592,0.527038498994941,0.0658296225592494,0.9929538161015766,0.9934420770338925,0.9855148342059337,0.9961198534166846,1.0,533,0.9488664987405542,0.6432195505180327,0.9971014492753624,0.9676244435451234,0.0,149,1.5784113017890262
-2.526588962399171,0.5221459578606138,0.2305844675740592,0.527038498994941,0.06899095394182937,0.9928142877075485,0.9933117005211546,0.9856893542757417,0.9954731623194654,1.0,529,0.9460957178841309,0.641202606204176,0.9971014492753624,0.9631728045325779,0.0,138,1.5783713174779852
-2.526588962399171,0.9236126636548955,0.2305844675740592,0.47814795419915657,0.0658296225592494,0.9919771173433793,0.9925271843968254,0.987783595113438,0.9902996335417116,1.0,519,0.9483627204030227,0.6428523647066694,0.9971014492753624,0.9668150546337515,0.0,147,1.578354468618057
-2.526588962399171,0.9236126636548955,0.2305844675740592,0.527038498994941,0.06292294085025782,0.9928840519045625,0.9933770193885801,0.9855148342059337,0.9959042897176116,1.0,532,0.9498740554156171,0.6439545531242179,0.9971014492753624,0.9692432213678672,0.0,153,1.5783424789023528
-2.526588962399171,0.9236126636548955,0.2305844675740592,0.47814795419915657,0.06899095394182937,0.9918375889493511,0.9923966117126316,0.987958115183246,0.9896529424444923,1.0,515,0.9458438287153652,0.6410195580479158,0.9971014492753624,0.9627681100768919,0.0,137,1.5783144450727244
-2.526588962399171,0.2036190182156168,0.2305844675740592,0.47814795419915657,0.0658296225592494,0.9921166457374075,0.9926580267831571,0.987434554973822,0.9911618883380039,1.0,525,0.9488664987405542,0.6432195505180327,0.9971014492753624,0.9676244435451234,0.0,149,1.5782968323970883
-2.526588962399171,0.5221459578606138,0.2305844675740592,0.47814795419915657,0.07265520706772798,0.991767824752337,0.9923314711387415,0.987958115183246,0.9894373787454193,1.0,514,0.944080604534005,0.639739651698097,0.9971014492753624,0.9599352488870903,0.0,130,1.578245605600335
-2.526588962399171,0.9236126636548955,0.2305844675740592,0.527038498994941,0.0658296225592494,0.9927445235105344,0.9932468961896342,0.9855148342059337,0.9954731623194654,1.0,530,0.9483627204030227,0.6428523647066694,0.9971014492753624,0.9668150546337515,0.0,147,1.578204831547341
-2.526588962399171,0.9236126636548955,0.2305844675740592,0.527038498994941,0.06899095394182937,0.9926049951165062,0.993116495494985,0.9856893542757417,0.9948264712222462,1.0,526,0.9458438287153652,0.6410195580479158,0.9971014492753624,0.9627681100768919,0.0,137,1.5781648423999175
-2.526588962399171,-0.070056743853622,0.2305844675740592,0.47814795419915657,0.07265520706772798,0.991767824752337,0.9923317796867762,0.987783595113438,0.9896529424444923,1.0,516,0.944080604534005,0.639739651698097,0.9971014492753624,0.9599352488870903,0.0,130,1.5781479536032132
-2.526588962399171,0.2036190182156168,0.2305844675740592,0.47814795419915657,0.07265520706772798,0.991767824752337,0.9923317796867762,0.987783595113438,0.9896529424444923,1.0,516,0.944080604534005,0.639739651698097,0.9971014492753624,0.9599352488870903,0.0,130,1.5781479536032132
-2.526588962399171,-0.070056743853622,0.2305844675740592,0.47814795419915657,0.0658296225592494,0.9920468815403934,0.9925932010886259,0.9872600349040139,0.9911618883380039,1.0,526,0.9488664987405542,0.6432195505180327,0.9971014492753624,0.9676244435451234,0.0,149,1.5781303421938417
-2.526588962399171,-0.070056743853622,0.2305844675740592,0.47814795419915657,0.06292294085025782,0.9921166457374075,0.9926586108232196,0.9870855148342059,0.99159301573615,1.0,529,0.9503778337531487,0.6443223715526581,0.9971014492753624,0.9700526102792392,0.0,155,1.578101521791643
-2.526588962399171,0.5221459578606138,0.2305844675740592,0.527038498994941,0.07265520706772798,0.9925352309194921,0.993051421847582,0.9856893542757417,0.994610907523173,1.0,525,0.944080604534005,0.639739651698097,0.9971014492753624,0.9599352488870903,0.0,130,1.5780960163128255
-2.526588962399171,-0.070056743853622,0.2073658927141713,0.527038498994941,0.06292294085025782,0.9930235802985907,0.9935076311162354,0.9851657940663177,0.9967665445139039,1.0,554,0.9498740554156171,0.6439545531242179,0.9971014492753624,0.9692432213678672,0.0,153,1.5780615511192035
-2.526588962399171,0.9236126636548955,0.2305844675740592,0.47814795419915657,0.07265520706772798,0.9915585321612949,0.9921360327950853,0.987958115183246,0.9887906876482,1.0,511,0.9438287153652393,0.6395570111226766,0.9971014492753624,0.9595305544314043,0.0,129,1.5780390838587701
-2.526588962399171,0.9236126636548955,0.2305844675740592,0.527038498994941,0.07265520706772798,0.9923259383284498,0.9928561849358154,0.9856893542757417,0.9939642164259539,1.0,522,0.9438287153652393,0.6395570111226766,0.9971014492753624,0.9595305544314043,0.0,129,1.5778895348576385
-2.526588962399171,0.2036190182156168,0.2305844675740592,0.527038498994941,0.06899095394182937,0.9926049951165062,0.9931175599710814,0.9849912739965097,0.9956887260185385,1.0,534,0.9460957178841309,0.641202606204176,0.9971014492753624,0.9631728045325779,0.0,138,1.5777742004682211
-2.526588962399171,-0.070056743853622,0.2305844675740592,0.527038498994941,0.06899095394182937,0.9925352309194921,0.9930527649957184,0.9848167539267015,0.9956887260185385,1.0,535,0.9460957178841309,0.641202606204176,0.9971014492753624,0.9631728045325779,0.0,138,1.5776077164088087
-2.526588962399171,0.2036190182156168,0.2305844675740592,0.527038498994941,0.07265520706772798,0.9923259383284498,0.9928572940467285,0.9849912739965097,0.9948264712222462,1.0,530,0.944080604534005,0.639739651698097,0.9971014492753624,0.9599352488870903,0.0,130,1.5774989018529055
-2.526588962399171,0.2036190182156168,0.2305844675740592,0.527038498994941,0.0658296225592494,0.9926049951165062,0.9931183526832198,0.9844677137870855,0.9963354171157577,1.0,540,0.9488664987405542,0.6432195505180327,0.9971014492753624,0.9676244435451234,0.0,149,1.5774812178904623
-2.526588962399171,-0.070056743853622,0.2305844675740592,0.527038498994941,0.07265520706772798,0.9922561741314357,0.9927924996217102,0.9848167539267015,0.9948264712222462,1.0,531,0.944080604534005,0.639739651698097,0.9971014492753624,0.9599352488870903,0.0,130,1.577332417903562
-2.526588962399171,0.2036190182156168,0.2305844675740592,0.527038498994941,0.06292294085025782,0.9926049951165062,0.9931188784717385,0.9841186736474694,0.9967665445139039,1.0,544,0.9503778337531487,0.6443223715526581,0.9971014492753624,0.9700526102792392,0.0,155,1.5772858956347084
-2.526588962399171,-0.070056743853622,0.2305844675740592,0.527038498994941,0.0658296225592494,0.992465466722478,0.9929887784091549,0.9841186736474694,0.9963354171157577,1.0,542,0.9488664987405542,0.6432195505180327,0.9971014492753624,0.9676244435451234,0.0,149,1.5771482529069691
-1.046472798262,0.5221459578606138,0.1585268214571657,0.527038498994941,0.06292294085025782,0.9915585321612949,0.9921311988867956,0.9905759162303664,0.9855572321621039,1.0,511,0.9387909319899245,0.6359180316952148,0.9978260869565218,0.9510319708619992,0.0,109,1.5770777638686553
-1.046472798262,0.5221459578606138,0.1585268214571657,0.527038498994941,0.0658296225592494,0.9915585321612949,0.9921305438474056,0.9909249563699826,0.9851261047639578,1.0,511,0.9380352644836272,0.635373504382803,0.9978260869565218,0.9498178874949413,0.0,106,1.576905181901519
-1.046472798262,0.2036190182156168,0.1585268214571657,0.527038498994941,0.06292294085025782,0.9913492395702526,0.991936606438117,0.9900523560209424,0.9855572321621039,1.0,508,0.9387909319899245,0.6359180316952148,0.9978260869565218,0.9510319708619992,0.0,109,1.576871411306086
-1.046472798262,0.9236126636548955,0.1585268214571657,0.527038498994941,0.06292294085025782,0.9915585321612949,0.9921302153982744,0.9910994764397906,0.9849105410648846,1.0,511,0.9385390428211587,0.6357364743283288,0.9978260869565218,0.9506272764063133,0.0,108,1.5768188907320633
-2.526588962399171,-0.070056743853622,0.2305844675740592,0.527038498994941,0.06292294085025782,0.9923957025254639,0.9929245338017528,0.9835951134380454,0.9967665445139039,1.0,547,0.9503778337531487,0.6443223715526581,0.9971014492753624,0.9700526102792392,0.0,155,1.5767864515076908
-1.046472798262,0.5221459578606138,0.1585268214571657,0.527038498994941,0.06899095394182937,0.9915585321612949,0.9921298863293169,0.9912739965095986,0.9846949773658116,1.0,511,0.93727959697733,0.6348294099739005,0.9978260869565218,0.9486038041278835,0.0,103,1.5767325994386425
-1.046472798262,0.9236126636548955,0.1585268214571657,0.527038498994941,0.0658296225592494,0.9915585321612949,0.992129556640381,0.9914485165794066,0.9844794136667385,1.0,511,0.9377833753148614,0.6351920916092357,0.9978260869565218,0.9494131930392553,0.0,105,1.5766463080212263
-1.046472798262,0.2036190182156168,0.1585268214571657,0.527038498994941,0.0658296225592494,0.9912794753732385,0.9918710732301608,0.9902268760907504,0.9851261047639578,1.0,507,0.9380352644836272,0.635373504382803,0.9978260869565218,0.9498178874949413,0.0,106,1.5766300423476247
-1.046472798262,0.9236126636548955,0.1585268214571657,0.527038498994941,0.06899095394182937,0.9915585321612949,0.9921288954019641,0.9917975567190227,0.9840482862685924,1.0,511,0.9370277078085643,0.6346481409177858,0.9978260869565218,0.9481991096721974,0.0,102,1.5764737248142844
-1.046472798262,-0.070056743853622,0.1585268214571657,0.527038498994941,0.06292294085025782,0.990930654388168,0.9915474898922535,0.9890052356020942,0.9855572321621039,1.0,502,0.9387909319899245,0.6359180316952148,0.9978260869565218,0.9510319708619992,0.0,109,1.5764587198512456
-1.046472798262,0.5221459578606138,0.1841473178542834,0.527038498994941,0.06292294085025782,0.990930654388168,0.9915474898922535,0.9890052356020942,0.9855572321621039,1.0,502,0.9392947103274559,0.636281291705281,0.9978260869565218,0.9518413597733711,0.0,111,1.5764587198512456
-1.046472798262,0.2036190182156168,0.1585268214571657,0.527038498994941,0.06899095394182937,0.9912794753732385,0.9918703965365759,0.9905759162303664,0.9846949773658116,1.0,507,0.93727959697733,0.6348294099739005,0.9978260869565218,0.9486038041278835,0.0,103,1.5764574560496494
-1.046472798262,0.2036190182156168,0.1841473178542834,0.527038498994941,0.06292294085025782,0.9907911259941398,0.9914178045173022,0.9886561954624782,0.9855572321621039,1.0,500,0.9392947103274559,0.636281291705281,0.9978260869565218,0.9518413597733711,0.0,111,1.5763211600610327
-1.046472798262,0.5221459578606138,0.1841473178542834,0.527038498994941,0.0658296225592494,0.990930654388168,0.9915467921180735,0.9893542757417103,0.9851261047639578,1.0,502,0.9385390428211587,0.6357364743283288,0.9978260869565218,0.9506272764063133,0.0,108,1.576286129337151
-3.0596156344255907,0.9236126636548955,0.1585268214571657,0.47814795419915657,0.07265520706772798,0.9908608901911539,0.9914878291844428,0.9862129144851658,0.9887906876482,1.0,535,0.9433249370277078,0.6391994899149446,0.9992753623188406,0.9575070821529745,0.0,127,1.576178852741601
-1.046472798262,-0.070056743853622,0.1585268214571657,0.527038498994941,0.0658296225592494,0.9907911259941398,0.9914170973581795,0.9890052356020942,0.9851261047639578,1.0,500,0.9380352644836272,0.635373504382803,0.9978260869565218,0.9498178874949413,0.0,106,1.5761485676699494
-1.046472798262,0.9236126636548955,0.1841473178542834,0.527038498994941,0.06292294085025782,0.9908608901911539,0.9914815912378462,0.9893542757417103,0.9849105410648846,1.0,501,0.9390428211586902,0.6360996374549631,0.9978260869565218,0.9514366653176851,0.0,110,1.576131052323865
-1.046472798262,0.5221459578606138,0.1585268214571657,0.527038498994941,0.07265520706772798,0.9912794753732385,0.9918690354662338,0.9912739965095986,0.9838327225695193,1.0,507,0.9360201511335012,0.633923540840793,0.9978260869565218,0.9465803318494537,0.0,98,1.5761122819170639
-1.046472798262,0.2036190182156168,0.1841473178542834,0.527038498994941,0.0658296225592494,0.9907213617971257,0.9913522537525964,0.9888307155322862,0.9851261047639578,1.0,499,0.9385390428211587,0.6357364743283288,0.9978260869565218,0.9506272764063133,0.0,108,1.5760797875912216
-1.046472798262,-0.070056743853622,0.1841473178542834,0.527038498994941,0.06292294085025782,0.9905120692060835,0.9911584637948089,0.987958115183246,0.9855572321621039,1.0,496,0.9392947103274559,0.636281291705281,0.9978260869565218,0.9518413597733711,0.0,111,1.576046046486089
-1.046472798262,0.5221459578606138,0.2073658927141713,0.527038498994941,0.06292294085025782,0.9905120692060835,0.9911584637948089,0.987958115183246,0.9855572321621039,1.0,496,0.9390428211586902,0.6360963214308737,0.9971014492753624,0.9518413597733711,0.0,110,1.576046046486089
-1.046472798262,-0.070056743853622,0.1585268214571657,0.527038498994941,0.06899095394182937,0.9907911259941398,0.9914163874986407,0.9893542757417103,0.9846949773658116,1.0,500,0.93727959697733,0.6348294099739005,0.9978260869565218,0.9486038041278835,0.0,103,1.5759759747387831
-1.046472798262,0.5221459578606138,0.1841473178542834,0.527038498994941,0.06899095394182937,0.9907911259941398,0.9914163874986407,0.9893542757417103,0.9846949773658116,1.0,500,0.9375314861460957,0.6350107268386754,0.9978260869565218,0.9490084985835694,0.0,104,1.5759759747387831
-1.046472798262,0.9236126636548955,0.1841473178542834,0.527038498994941,0.0658296225592494,0.9908608901911539,0.9914808847452085,0.9897033158813263,0.9844794136667385,1.0,501,0.9382871536523929,0.6355549652566957,0.9978260869565218,0.9502225819506273,0.0,107,1.575958460066079
-1.046472798262,0.2036190182156168,0.2073658927141713,0.527038498994941,0.06292294085025782,0.9903725408120553,0.9910288083862682,0.98760907504363,0.9855572321621039,1.0,494,0.9390428211586902,0.6360963214308737,0.9971014492753624,0.9518413597733711,0.0,110,1.5759084926891582
-1.046472798262,0.9236126636548955,0.1585268214571657,0.527038498994941,0.07265520706772798,0.9912794753732385,0.9918680079357451,0.9917975567190227,0.9831860314723001,1.0,507,0.9357682619647355,0.6337425093744656,0.9978260869565218,0.9461756373937678,0.0,97,1.5758533999720785
-1.046472798262,0.2036190182156168,0.1585268214571657,0.527038498994941,0.07265520706772798,0.9910004185851821,0.9916095482353874,0.9905759162303664,0.9838327225695193,1.0,503,0.9360201511335012,0.633923540840793,0.9978260869565218,0.9465803318494537,0.0,98,1.5758371390404495
-1.046472798262,0.5221459578606138,0.2073658927141713,0.527038498994941,0.0658296225592494,0.9904423050090694,0.9910929044036784,0.9881326352530541,0.9851261047639578,1.0,495,0.9382871536523929,0.6355515184898438,0.9971014492753624,0.9506272764063133,0.0,107,1.5758046722909933
-1.046472798262,-0.070056743853622,0.2073658927141713,0.527038498994941,0.06292294085025782,0.9902330124180271,0.9908991629055482,0.9872600349040139,0.9855572321621039,1.0,492,0.9390428211586902,0.6360963214308737,0.9971014492753624,0.9518413597733711,0.0,110,1.5757709408777916
-1.046472798262,0.2036190182156168,0.1841473178542834,0.527038498994941,0.06899095394182937,0.9905818334030976,0.9912218501498398,0.9888307155322862,0.9846949773658116,1.0,497,0.9375314861460957,0.6350107268386754,0.9978260869565218,0.9490084985835694,0.0,104,1.5757696331961895
-1.046472798262,-0.070056743853622,0.1841473178542834,0.527038498994941,0.0658296225592494,0.9903725408120553,0.9910280733157345,0.987958115183246,0.9851261047639578,1.0,494,0.9385390428211587,0.6357364743283288,0.9978260869565218,0.9506272764063133,0.0,108,1.5757358947157931
-3.0596156344255907,0.9236126636548955,0.1841473178542834,0.47814795419915657,0.07265520706772798,0.9906515976001117,0.9912934157116623,0.9856893542757417,0.9887906876482,1.0,534,0.944080604534005,0.6397420663404914,0.9978260869565218,0.9595305544314043,0.0,130,1.5757352062116357
-1.046472798262,0.9236126636548955,0.2073658927141713,0.527038498994941,0.06292294085025782,0.9904423050090694,0.991092538131395,0.9883071553228622,0.9849105410648846,1.0,495,0.9387909319899245,0.6359146719618164,0.9971014492753624,0.9514366653176851,0.0,109,1.5757183735569071
-1.046472798262,0.2036190182156168,0.2073658927141713,0.527038498994941,0.0658296225592494,0.9903027766150412,0.9909632447198801,0.987783595113438,0.9851261047639578,1.0,493,0.9382871536523929,0.6355515184898438,0.9971014492753624,0.9506272764063133,0.0,107,1.5756671176390107
-1.046472798262,0.9236126636548955,0.1841473178542834,0.527038498994941,0.06899095394182937,0.9907213617971257,0.9913504622563857,0.9897033158813263,0.9840482862685924,1.0,499,0.93727959697733,0.6348294099739005,0.9978260869565218,0.9486038041278835,0.0,103,1.5756483018938332
-1.046472798262,0.5221459578606138,0.2073658927141713,0.527038498994941,0.06899095394182937,0.9903027766150412,0.9909625021917071,0.9881326352530541,0.9846949773658116,1.0,493,0.93727959697733,0.6348257906767912,0.9971014492753624,0.9490084985835694,0.0,103,1.5754945181741176
-1.046472798262,0.9236126636548955,0.2073658927141713,0.527038498994941,0.0658296225592494,0.9903725408120553,0.991026965419915,0.9884816753926702,0.9844794136667385,1.0,494,0.9380352644836272,0.6353700142915197,0.9971014492753624,0.9502225819506273,0.0,106,1.5754769966977413
-1.046472798262,-0.070056743853622,0.2073658927141713,0.527038498994941,0.0658296225592494,0.9900934840239989,0.9907687738467397,0.9872600349040139,0.9851261047639578,1.0,490,0.9382871536523929,0.6355515184898438,0.9971014492753624,0.9506272764063133,0.0,107,1.575460789391549
-1.046472798262,-0.070056743853622,0.1841473178542834,0.527038498994941,0.06899095394182937,0.9902330124180271,0.9908976714577448,0.987958115183246,0.9846949773658116,1.0,492,0.9375314861460957,0.6350107268386754,0.9978260869565218,0.9490084985835694,0.0,104,1.575425740669714
-3.0596156344255907,0.9236126636548955,0.1585268214571657,0.527038498994941,0.07265520706772798,0.9912794753732385,0.9918840712566803,0.9832460732984293,0.9937486527268808,1.0,543,0.9428211586901764,0.6388295976694428,0.9978260869565218,0.9575070821529745,0.0,125,1.575378327148216
-1.046472798262,0.2036190182156168,0.2073658927141713,0.527038498994941,0.06899095394182937,0.990163248221013,0.9908328432183843,0.987783595113438,0.9846949773658116,1.0,491,0.93727959697733,0.6348257906767912,0.9971014492753624,0.9490084985835694,0.0,103,1.5753569636642306
-1.046472798262,-0.070056743853622,0.1585268214571657,0.527038498994941,0.07265520706772798,0.9905120692060835,0.9911555438748705,0.9893542757417103,0.9838327225695193,1.0,496,0.9360201511335012,0.633923540840793,0.9978260869565218,0.9465803318494537,0.0,98,1.5753556586650672
-1.046472798262,0.5221459578606138,0.1841473178542834,0.527038498994941,0.07265520706772798,0.9905120692060835,0.9911555438748705,0.9893542757417103,0.9838327225695193,1.0,496,0.936272040302267,0.6341046196315953,0.9978260869565218,0.9469850263051396,0.0,99,1.5753556586650672
-1.046472798262,-0.070056743853622,0.2305844675740592,0.527038498994941,0.06292294085025782,0.9896748988419143,0.9903806796515068,0.9858638743455498,0.9855572321621039,1.0,484,0.9390428211586902,0.6360963214308737,0.9971014492753624,0.9518413597733711,0.0,110,1.5752207533660934
-1.046472798262,0.2036190182156168,0.2305844675740592,0.527038498994941,0.06292294085025782,0.9896748988419143,0.9903806796515068,0.9858638743455498,0.9855572321621039,1.0,484,0.9390428211586902,0.6360963214308737,0.9971014492753624,0.9518413597733711,0.0,110,1.5752207533660934
-1.046472798262,0.5221459578606138,0.2305844675740592,0.527038498994941,0.06292294085025782,0.9896748988419143,0.9903806796515068,0.9858638743455498,0.9855572321621039,1.0,484,0.9390428211586902,0.6360963214308737,0.9971014492753624,0.9518413597733711,0.0,110,1.5752207533660934
-3.0596156344255907,0.9236126636548955,0.1585268214571657,0.47814795419915657,0.0658296225592494,0.9907213617971257,0.9913606166052876,0.9846422338568935,0.9902996335417116,1.0,549,0.947103274559194,0.6419408145071862,0.9992753623188406,0.9635774989882638,0.0,142,1.5751902698287932
-1.046472798262,0.5221459578606138,0.1585268214571657,0.47814795419915657,0.06292294085025782,0.9914887679642808,0.9920592791921726,0.9940663176265271,0.9810303944815693,1.0,512,0.9392947103274559,0.6362877791270324,0.9992753623188406,0.9510319708619992,0.0,111,1.5751689278211
-1.046472798262,0.9236126636548955,0.2073658927141713,0.527038498994941,0.06899095394182937,0.9902330124180271,0.9908965453579254,0.9884816753926702,0.9840482862685924,1.0,492,0.9370277078085643,0.6346444788074166,0.9971014492753624,0.9486038041278835,0.0,102,1.5751668390108626
-1.046472798262,-0.070056743853622,0.2073658927141713,0.527038498994941,0.06899095394182937,0.9899539556299707,0.9906383734297975,0.9872600349040139,0.9846949773658116,1.0,488,0.93727959697733,0.6348257906767912,0.9971014492753624,0.9490084985835694,0.0,103,1.5751506356336795
-1.046472798262,0.2036190182156168,0.1841473178542834,0.527038498994941,0.07265520706772798,0.9903027766150412,0.9909610086062202,0.9888307155322862,0.9838327225695193,1.0,493,0.936272040302267,0.6341046196315953,0.9978260869565218,0.9469850263051396,0.0,99,1.5751493175385034
-3.0596156344255907,0.9236126636548955,0.1585268214571657,0.47814795419915657,0.06899095394182937,0.9905818334030976,0.9912300088139722,0.9848167539267015,0.9896529424444923,1.0,547,0.9453400503778338,0.6406601109728887,0.9992753623188406,0.9607446377984622,0.0,135,1.575122333583231
-3.0596156344255907,0.5221459578606138,0.1585268214571657,0.47814795419915657,0.07265520706772798,0.9905120692060835,0.9911648711391045,0.9848167539267015,0.9894373787454193,1.0,546,0.9435768261964735,0.6393818918360027,0.9992753623188406,0.9579117766086604,0.0,128,1.5750534946906463
-1.046472798262,0.9236126636548955,0.1841473178542834,0.527038498994941,0.07265520706772798,0.9904423050090694,0.991089582723666,0.9897033158813263,0.9831860314723001,1.0,495,0.9360201511335012,0.633923540840793,0.9978260869565218,0.9465803318494537,0.0,98,1.5750279786383274
-3.0596156344255907,0.9236126636548955,0.1841473178542834,0.527038498994941,0.07265520706772798,0.9911399469792103,0.991754849569315,0.9827225130890053,0.9939642164259539,1.0,543,0.944080604534005,0.6397420663404914,0.9978260869565218,0.9595305544314043,0.0,130,1.575003530332945
-1.046472798262,0.5221459578606138,0.1585268214571657,0.47814795419915657,0.0658296225592494,0.9914887679642808,0.9920585930638667,0.9944153577661431,0.9805992670834232,1.0,512,0.9385390428211587,0.6357432229011929,0.9992753623188406,0.9498178874949413,0.0,108,1.5749963396361806
-1.046472798262,0.5221459578606138,0.1585268214571657,0.47814795419915657,0.06899095394182937,0.991628296358309,0.9921877631092295,0.9951134380453752,0.980168139685277,1.0,514,0.9377833753148614,0.6351990990288863,0.9992753623188406,0.9486038041278835,0.0,105,1.5749613454012168
-1.046472798262,-0.070056743853622,0.2305844675740592,0.527038498994941,0.0658296225592494,0.9895353704478862,0.9902502935537036,0.9858638743455498,0.9851261047639578,1.0,482,0.9382871536523929,0.6355515184898438,0.9971014492753624,0.9506272764063133,0.0,107,1.5749106024720514
-1.046472798262,0.2036190182156168,0.2305844675740592,0.527038498994941,0.0658296225592494,0.9895353704478862,0.9902502935537036,0.9858638743455498,0.9851261047639578,1.0,482,0.9382871536523929,0.6355515184898438,0.9971014492753624,0.9506272764063133,0.0,107,1.5749106024720514
-1.046472798262,0.5221459578606138,0.2305844675740592,0.527038498994941,0.0658296225592494,0.9895353704478862,0.9902502935537036,0.9858638743455498,0.9851261047639578,1.0,482,0.9382871536523929,0.6355515184898438,0.9971014492753624,0.9506272764063133,0.0,107,1.5749106024720514
-1.046472798262,0.9236126636548955,0.1585268214571657,0.47814795419915657,0.06292294085025782,0.9914887679642808,0.9920582490578016,0.9945898778359511,0.9803837033843501,1.0,512,0.9390428211586902,0.6361062121835976,0.9992753623188406,0.9506272764063133,0.0,110,1.5749100453553382
-3.0596156344255907,0.9236126636548955,0.2073658927141713,0.47814795419915657,0.07265520706772798,0.9902330124180271,0.990904654038267,0.9846422338568935,0.9887906876482,1.0,528,0.9438287153652393,0.6395570111226766,0.9971014492753624,0.9595305544314043,0.0,129,1.5749037375637498
-1.046472798262,0.2036190182156168,0.1585268214571657,0.47814795419915657,0.06292294085025782,0.9912097111762244,0.9917996337215674,0.993368237347295,0.9810303944815693,1.0,508,0.9392947103274559,0.6362877791270324,0.9992753623188406,0.9510319708619992,0.0,111,1.5748937532965337
-3.0596156344255907,0.9236126636548955,0.1841473178542834,0.47814795419915657,0.0658296225592494,0.9905818334030976,0.9912310461615355,0.9842931937172775,0.9902996335417116,1.0,549,0.9483627204030227,0.6428539718536072,0.9978260869565218,0.9664103601780656,0.0,147,1.5748852112901686
-3.0596156344255907,0.9236126636548955,0.1585268214571657,0.47814795419915657,0.06292294085025782,0.9906515976001117,0.991296513907565,0.9841186736474694,0.9907307609398577,1.0,550,0.9483627204030227,0.6428571428571429,0.9992753623188406,0.9656009712666936,0.0,147,1.5748843081690622
-1.046472798262,0.5221459578606138,0.2073658927141713,0.527038498994941,0.07265520706772798,0.9900237198269848,0.9907016634920525,0.9881326352530541,0.9838327225695193,1.0,489,0.9360201511335012,0.6339197087503551,0.9971014492753624,0.9469850263051396,0.0,98,1.5748742030852247
-1.046472798262,0.9236126636548955,0.2305844675740592,0.527038498994941,0.06292294085025782,0.9895353704478862,0.9902498975059145,0.9860383944153578,0.9849105410648846,1.0,482,0.9387909319899245,0.6359146719618164,0.9971014492753624,0.9514366653176851,0.0,109,1.5748242977828644
-1.046472798262,-0.070056743853622,0.1841473178542834,0.527038498994941,0.07265520706772798,0.9899539556299707,0.9906368334816505,0.987958115183246,0.9838327225695193,1.0,488,0.936272040302267,0.6341046196315953,0.9978260869565218,0.9469850263051396,0.0,99,1.574805425725533
-1.046472798262,0.9236126636548955,0.1585268214571657,0.47814795419915657,0.0658296225592494,0.9914887679642808,0.99205755916105,0.9949389179755672,0.9799525759862039,1.0,512,0.9382871536523929,0.6355618003674781,0.9992753623188406,0.9494131930392553,0.0,107,1.5747374564167294
-1.046472798262,0.2036190182156168,0.2073658927141713,0.527038498994941,0.07265520706772798,0.9898841914329566,0.9905720059708759,0.987783595113438,0.9838327225695193,1.0,487,0.9360201511335012,0.6339197087503551,0.9971014492753624,0.9469850263051396,0.0,98,1.5747366488657668
-1.046472798262,0.9236126636548955,0.1585268214571657,0.47814795419915657,0.06899095394182937,0.991628296358309,0.9921867405921017,0.9956369982547993,0.9795214485880578,1.0,514,0.9375314861460957,0.6350178200298436,0.9992753623188406,0.9481991096721974,0.0,104,1.5747024644589036
-3.0596156344255907,0.9236126636548955,0.1841473178542834,0.47814795419915657,0.06899095394182937,0.9903725408120553,0.9910356511103243,0.9842931937172775,0.9896529424444923,1.0,546,0.9460957178841309,0.6412046456294244,0.9978260869565218,0.9627681100768919,0.0,138,1.5746786982070924
-1.046472798262,-0.070056743853622,0.1585268214571657,0.47814795419915657,0.06292294085025782,0.9908608901911539,0.9914755004630432,0.9923211169284468,0.9812459581806424,1.0,501,0.9392947103274559,0.6362877791270324,0.9992753623188406,0.9510319708619992,0.0,111,1.5746640010152075
-1.046472798262,0.5221459578606138,0.1841473178542834,0.47814795419915657,0.06292294085025782,0.9908608901911539,0.9914755004630432,0.9923211169284468,0.9812459581806424,1.0,501,0.9392947103274559,0.636281291705281,0.9978260869565218,0.9518413597733711,0.0,111,1.5746640010152075
-1.046472798262,0.2036190182156168,0.1585268214571657,0.47814795419915657,0.0658296225592494,0.9911399469792103,0.991734017968455,0.993542757417103,0.9805992670834232,1.0,507,0.9385390428211587,0.6357432229011929,0.9992753623188406,0.9498178874949413,0.0,108,1.5746523678290414
-1.046472798262,0.2036190182156168,0.1585268214571657,0.47814795419915657,0.06899095394182937,0.9912794753732385,0.9918631364132616,0.9942408376963351,0.980168139685277,1.0,509,0.9377833753148614,0.6351990990288863,0.9992753623188406,0.9486038041278835,0.0,105,1.5746173632739673
-3.0596156344255907,0.5221459578606138,0.1841473178542834,0.47814795419915657,0.07265520706772798,0.9903027766150412,0.990970513958103,0.9842931937172775,0.9894373787454193,1.0,545,0.9443324937027707,0.6399247110727474,0.9978260869565218,0.9599352488870903,0.0,131,1.5746098594190368
-1.046472798262,-0.070056743853622,0.2305844675740592,0.527038498994941,0.06899095394182937,0.989395842053858,0.9901198961393267,0.9858638743455498,0.9846949773658116,1.0,480,0.93727959697733,0.6348257906767912,0.9971014492753624,0.9490084985835694,0.0,103,1.574600449314695
-1.046472798262,0.2036190182156168,0.2305844675740592,0.527038498994941,0.06899095394182937,0.989395842053858,0.9901198961393267,0.9858638743455498,0.9846949773658116,1.0,480,0.93727959697733,0.6348257906767912,0.9971014492753624,0.9490084985835694,0.0,103,1.574600449314695
-1.046472798262,0.5221459578606138,0.2305844675740592,0.527038498994941,0.06899095394182937,0.989395842053858,0.9901198961393267,0.9858638743455498,0.9846949773658116,1.0,480,0.93727959697733,0.6348257906767912,0.9971014492753624,0.9490084985835694,0.0,103,1.574600449314695
-1.046472798262,0.9236126636548955,0.2073658927141713,0.527038498994941,0.07265520706772798,0.9899539556299707,0.9906356707881515,0.9884816753926702,0.9831860314723001,1.0,488,0.9357682619647355,0.6337386351065496,0.9971014492753624,0.9465803318494537,0.0,97,1.5745465167479458
-1.046472798262,-0.070056743853622,0.2073658927141713,0.527038498994941,0.07265520706772798,0.9896748988419143,0.9903775383981873,0.9872600349040139,0.9838327225695193,1.0,484,0.9360201511335012,0.6339197087503551,0.9971014492753624,0.9469850263051396,0.0,98,1.5745303212783954
-1.046472798262,0.9236126636548955,0.2305844675740592,0.527038498994941,0.0658296225592494,0.989395842053858,0.9901194940350027,0.9860383944153578,0.9844794136667385,1.0,480,0.9380352644836272,0.6353700142915197,0.9971014492753624,0.9502225819506273,0.0,106,1.5745141434142012
-1.046472798262,0.5221459578606138,0.1841473178542834,0.47814795419915657,0.0658296225592494,0.9908608901911539,0.9914747711292348,0.9926701570680628,0.9808148307824962,1.0,501,0.9385390428211587,0.6357364743283288,0.9978260869565218,0.9506272764063133,0.0,108,1.574491404189187
-3.0596156344255907,0.2036190182156168,0.1585268214571657,0.47814795419915657,0.07265520706772798,0.9903027766150412,0.9909708699859774,0.9841186736474694,0.9896529424444923,1.0,549,0.9435768261964735,0.6393818918360027,0.9992753623188406,0.9579117766086604,0.0,128,1.5744843112390772
-1.046472798262,0.2036190182156168,0.1841473178542834,0.47814795419915657,0.06292294085025782,0.9906515976001117,0.9912808406361876,0.9917975567190227,0.9812459581806424,1.0,498,0.9392947103274559,0.636281291705281,0.9978260869565218,0.9518413597733711,0.0,111,1.5744576349770028
-3.0596156344255907,0.9236126636548955,0.1841473178542834,0.47814795419915657,0.06292294085025782,0.9904423050090694,0.9911021821818448,0.9835951134380454,0.9907307609398577,1.0,551,0.9496221662468514,0.643772085649342,0.9978260869565218,0.9684338324564954,0.0,152,1.5744127723097034
-3.0596156344255907,0.9236126636548955,0.1585268214571657,0.527038498994941,0.0658296225592494,0.9911399469792103,0.9917567336425369,0.981675392670157,0.9952575986203923,1.0,557,0.9465994962216625,0.641570801112748,0.9978260869565218,0.9635774989882638,0.0,140,1.5743897192284104
-1.046472798262,-0.070056743853622,0.1585268214571657,0.47814795419915657,0.0658296225592494,0.9907213617971257,0.9913449855393547,0.9923211169284468,0.9808148307824962,1.0,499,0.9385390428211587,0.6357432229011929,0.9992753623188406,0.9498178874949413,0.0,108,1.5743538243559887
-1.046472798262,0.5221459578606138,0.1585268214571657,0.47814795419915657,0.07265520706772798,0.9913492395702526,0.9919266514512306,0.9951134380453752,0.9793058848889847,1.0,510,0.9365239294710328,0.6342931795745768,0.9992753623188406,0.9465803318494537,0.0,100,1.574340975720655
-1.046472798262,0.9236126636548955,0.1841473178542834,0.47814795419915657,0.06292294085025782,0.9907911259941398,0.9914095088969151,0.9926701570680628,0.9805992670834232,1.0,500,0.9390428211586902,0.6360996374549631,0.9978260869565218,0.9514366653176851,0.0,110,1.574336314905483
-3.0596156344255907,0.9236126636548955,0.1585268214571657,0.527038498994941,0.06899095394182937,0.9910004185851821,0.9916262831231754,0.9818499127399651,0.994610907523173,1.0,555,0.9448362720403023,0.6402901523331258,0.9978260869565218,0.9607446377984622,0.0,133,1.5743218144372388
-3.0596156344255907,0.9236126636548955,0.2073658927141713,0.527038498994941,0.07265520706772798,0.9907911259941398,0.9914310562100895,0.9818499127399651,0.9939642164259539,1.0,538,0.9438287153652393,0.6395570111226766,0.9971014492753624,0.9595305544314043,0.0,129,1.5743106747334275
-1.046472798262,-0.070056743853622,0.1585268214571657,0.47814795419915657,0.06899095394182937,0.9907911259941398,0.9914091400892611,0.9928446771378708,0.9803837033843501,1.0,500,0.9377833753148614,0.6351990990288863,0.9992753623188406,0.9486038041278835,0.0,105,1.5742500156643227
-1.046472798262,0.2036190182156168,0.1841473178542834,0.47814795419915657,0.0658296225592494,0.9905818334030976,0.9912152104008459,0.9919720767888307,0.9808148307824962,1.0,497,0.9385390428211587,0.6357364743283288,0.9978260869565218,0.9506272764063133,0.0,108,1.5742162466130643
-1.046472798262,0.9236126636548955,0.2305844675740592,0.527038498994941,0.06899095394182937,0.9892563136598298,0.989989079196103,0.9860383944153578,0.9840482862685924,1.0,478,0.9370277078085643,0.6346444788074166,0.9971014492753624,0.9486038041278835,0.0,102,1.5742039867719402
-1.046472798262,-0.070056743853622,0.1841473178542834,0.47814795419915657,0.06292294085025782,0.9903725408120553,0.9910213305660206,0.9910994764397906,0.9812459581806424,1.0,494,0.9392947103274559,0.636281291705281,0.9978260869565218,0.9518413597733711,0.0,111,1.574182487532524
-1.046472798262,0.5221459578606138,0.1841473178542834,0.47814795419915657,0.06899095394182937,0.9907213617971257,0.9913442437035157,0.9926701570680628,0.9803837033843501,1.0,499,0.9375314861460957,0.6350107268386754,0.9978260869565218,0.9490084985835694,0.0,104,1.5741812250295624
-1.046472798262,0.9236126636548955,0.1841473178542834,0.47814795419915657,0.0658296225592494,0.9907911259941398,0.991408770602824,0.9930191972076788,0.980168139685277,1.0,500,0.9382871536523929,0.6355549652566957,0.9978260869565218,0.9502225819506273,0.0,107,1.574163716287406
-3.0596156344255907,0.9236126636548955,0.1841473178542834,0.527038498994941,0.0658296225592494,0.9910701827821962,0.9916922971148505,0.981326352530541,0.9954731623194654,1.0,558,0.9483627204030227,0.6428539718536072,0.9978260869565218,0.9664103601780656,0.0,147,1.5741534988306098
-1.046472798262,0.5221459578606138,0.2073658927141713,0.47814795419915657,0.06292294085025782,0.9903027766150412,0.9909564595168132,0.9909249563699826,0.9812459581806424,1.0,493,0.9390428211586902,0.6360963214308737,0.9971014492753624,0.9518413597733711,0.0,110,1.5741137019650713
-1.046472798262,0.9236126636548955,0.1585268214571657,0.47814795419915657,0.07265520706772798,0.9913492395702526,0.9919255910150921,0.9956369982547993,0.9786591937917655,1.0,510,0.936272040302267,0.6341121378624882,0.9992753623188406,0.9461756373937678,0.0,99,1.5740820871945398
-1.046472798262,0.2036190182156168,0.1585268214571657,0.47814795419915657,0.07265520706772798,0.9910004185851821,0.9916020279618168,0.9942408376963351,0.9793058848889847,1.0,505,0.9365239294710328,0.6342931795745768,0.9992753623188406,0.9465803318494537,0.0,100,1.573996994234716
-1.046472798262,-0.070056743853622,0.2305844675740592,0.527038498994941,0.07265520706772798,0.9891167852658016,0.989859067237611,0.9858638743455498,0.9838327225695193,1.0,476,0.9360201511335012,0.6339197087503551,0.9971014492753624,0.9469850263051396,0.0,98,1.5739801361853898
-1.046472798262,0.2036190182156168,0.2305844675740592,0.527038498994941,0.07265520706772798,0.9891167852658016,0.989859067237611,0.9858638743455498,0.9838327225695193,1.0,476,0.9360201511335012,0.6339197087503551,0.9971014492753624,0.9469850263051396,0.0,98,1.5739801361853898
-1.046472798262,0.5221459578606138,0.2305844675740592,0.527038498994941,0.07265520706772798,0.9891167852658016,0.989859067237611,0.9858638743455498,0.9838327225695193,1.0,476,0.9360201511335012,0.6339197087503551,0.9971014492753624,0.9469850263051396,0.0,98,1.5739801361853898
-1.046472798262,0.2036190182156168,0.2073658927141713,0.47814795419915657,0.06292294085025782,0.990163248221013,0.9908267251536041,0.9905759162303664,0.9812459581806424,1.0,491,0.9390428211586902,0.6360963214308737,0.9971014492753624,0.9518413597733711,0.0,110,1.573976132377207
-3.0596156344255907,0.9236126636548955,0.1841473178542834,0.527038498994941,0.06899095394182937,0.9908608901911539,0.9914971032060813,0.981326352530541,0.9948264712222462,1.0,555,0.9460957178841309,0.6412046456294244,0.9978260869565218,0.9627681100768919,0.0,138,1.5739470259760222
-3.0596156344255907,0.9236126636548955,0.1585268214571657,0.527038498994941,0.06292294085025782,0.9910004185851821,0.9916278664791287,0.980977312390925,0.9956887260185385,1.0,559,0.9478589420654912,0.6424870922806588,0.9978260869565218,0.9656009712666936,0.0,145,1.5739172796112022
-1.046472798262,0.2036190182156168,0.1841473178542834,0.47814795419915657,0.06899095394182937,0.9904423050090694,0.9910846843525684,0.9919720767888307,0.9803837033843501,1.0,495,0.9375314861460957,0.6350107268386754,0.9978260869565218,0.9490084985835694,0.0,104,1.5739060677289278
-3.0596156344255907,0.9236126636548955,0.2073658927141713,0.47814795419915657,0.0658296225592494,0.9900934840239989,0.9907776244471203,0.9830715532286213,0.9902996335417116,1.0,544,0.9483627204030227,0.6428523647066694,0.9971014492753624,0.9668150546337515,0.0,147,1.5738872855697381
-3.0596156344255907,0.2036190182156168,0.1841473178542834,0.47814795419915657,0.07265520706772798,0.9900237198269848,0.9907117692717812,0.9834205933682374,0.9896529424444923,1.0,549,0.9443324937027707,0.6399247110727474,0.9978260869565218,0.9599352488870903,0.0,131,1.5738742021964889
-1.046472798262,-0.070056743853622,0.1841473178542834,0.47814795419915657,0.0658296225592494,0.9902330124180271,0.9908908180781549,0.9910994764397906,0.9808148307824962,1.0,492,0.9385390428211587,0.6357364743283288,0.9978260869565218,0.9506272764063133,0.0,108,1.57387231136047
-1.046472798262,0.5221459578606138,0.2073658927141713,0.47814795419915657,0.0658296225592494,0.9902330124180271,0.9908908180781549,0.9910994764397906,0.9808148307824962,1.0,492,0.9382871536523929,0.6355515184898438,0.9971014492753624,0.9506272764063133,0.0,107,1.57387231136047
-1.046472798262,0.9236126636548955,0.1841473178542834,0.47814795419915657,0.06899095394182937,0.9906515976001117,0.9912782246864847,0.9930191972076788,0.9797370122871308,1.0,498,0.93727959697733,0.6348294099739005,0.9978260869565218,0.9486038041278835,0.0,103,1.5738535334296575
-1.046472798262,-0.070056743853622,0.2073658927141713,0.47814795419915657,0.06292294085025782,0.9900237198269848,0.9906970010784925,0.9902268760907504,0.9812459581806424,1.0,489,0.9390428211586902,0.6360963214308737,0.9971014492753624,0.9518413597733711,0.0,110,1.573838564846962
-1.046472798262,0.9236126636548955,0.2073658927141713,0.47814795419915657,0.06292294085025782,0.9902330124180271,0.9908904305154199,0.9912739965095986,0.9805992670834232,1.0,492,0.9387909319899245,0.6359146719618164,0.9971014492753624,0.9514366653176851,0.0,109,1.5737860083682937
-3.0596156344255907,0.5221459578606138,0.2073658927141713,0.47814795419915657,0.07265520706772798,0.9898841914329566,0.990581863946911,0.9832460732984293,0.9894373787454193,1.0,539,0.944080604534005,0.639739651698097,0.9971014492753624,0.9599352488870903,0.0,130,1.5737784131035915
-1.046472798262,0.2036190182156168,0.2073658927141713,0.47814795419915657,0.0658296225592494,0.9900934840239989,0.9907610792780792,0.9907504363001746,0.9808148307824962,1.0,490,0.9382871536523929,0.6355515184898438,0.9971014492753624,0.9506272764063133,0.0,107,1.5737347408852322
-3.0596156344255907,0.9236126636548955,0.2073658927141713,0.47814795419915657,0.06899095394182937,0.9898841914329566,0.9905822331315116,0.9830715532286213,0.9896529424444923,1.0,541,0.9458438287153652,0.6410195580479158,0.9971014492753624,0.9627681100768919,0.0,137,1.5736807732337827
-1.046472798262,-0.070056743853622,0.1585268214571657,0.47814795419915657,0.07265520706772798,0.9905120692060835,0.9911480489355368,0.9928446771378708,0.9795214485880578,1.0,496,0.9365239294710328,0.6342931795745768,0.9992753623188406,0.9465803318494537,0.0,100,1.5736296500846159
-3.0596156344255907,0.9236126636548955,0.2305844675740592,0.47814795419915657,0.07265520706772798,0.9896051346449002,0.9903216731708798,0.9830715532286213,0.9887906876482,1.0,521,0.9438287153652393,0.6395570111226766,0.9971014492753624,0.9595305544314043,0.0,129,1.5736286612416563
-1.046472798262,0.9236126636548955,0.2305844675740592,0.527038498994941,0.07265520706772798,0.9889772568717734,0.989728215291028,0.9860383944153578,0.9831860314723001,1.0,474,0.9357682619647355,0.6337386351065496,0.9971014492753624,0.9465803318494537,0.0,97,1.5735836666419631
-1.046472798262,-0.070056743853622,0.1841473178542834,0.47814795419915657,0.06899095394182937,0.9900934840239989,0.9907602938084974,0.9910994764397906,0.9803837033843501,1.0,490,0.9375314861460957,0.6350107268386754,0.9978260869565218,0.9490084985835694,0.0,104,1.5735621328320573
-1.046472798262,0.5221459578606138,0.2073658927141713,0.47814795419915657,0.06899095394182937,0.9900934840239989,0.9907602938084974,0.9910994764397906,0.9803837033843501,1.0,490,0.93727959697733,0.6348257906767912,0.9971014492753624,0.9490084985835694,0.0,103,1.5735621328320573
-1.046472798262,0.5221459578606138,0.1841473178542834,0.47814795419915657,0.07265520706772798,0.9904423050090694,0.9910831532415617,0.9926701570680628,0.9795214485880578,1.0,495,0.936272040302267,0.6341046196315953,0.9978260869565218,0.9469850263051396,0.0,99,1.5735608595882098
-3.0596156344255907,0.9236126636548955,0.2073658927141713,0.47814795419915657,0.06292294085025782,0.9900237198269848,0.9907135824691983,0.9825479930191972,0.9907307609398577,1.0,547,0.9496221662468514,0.6437707233446871,0.9971014492753624,0.9688385269121813,0.0,152,1.5735534303751615
-1.046472798262,0.9236126636548955,0.2073658927141713,0.47814795419915657,0.0658296225592494,0.990163248221013,0.9908247753075502,0.9914485165794066,0.980168139685277,1.0,491,0.9380352644836272,0.6353700142915197,0.9971014492753624,0.9502225819506273,0.0,106,1.57354461500985
-1.046472798262,-0.070056743853622,0.2073658927141713,0.47814795419915657,0.0658296225592494,0.9898841914329566,0.9905664904061888,0.9902268760907504,0.9808148307824962,1.0,487,0.9382871536523929,0.6355515184898438,0.9971014492753624,0.9506272764063133,0.0,107,1.57352838903802
-3.0596156344255907,0.9236126636548955,0.1841473178542834,0.527038498994941,0.06292294085025782,0.9908608901911539,0.9914987044815065,0.9804537521815009,0.9959042897176116,1.0,561,0.9496221662468514,0.643772085649342,0.9978260869565218,0.9684338324564954,0.0,152,1.5735145890550744
-3.0596156344255907,-0.070056743853622,0.1585268214571657,0.47814795419915657,0.07265520706772798,0.9898144272359425,0.9905174686023163,0.9828970331588133,0.9896529424444923,1.0,548,0.9435768261964735,0.6393818918360027,0.9992753623188406,0.9579117766086604,0.0,128,1.5734305782271865
-1.046472798262,0.2036190182156168,0.2073658927141713,0.47814795419915657,0.06899095394182937,0.9899539556299707,0.9906305557375309,0.9907504363001746,0.9803837033843501,1.0,488,0.93727959697733,0.6348257906767912,0.9971014492753624,0.9490084985835694,0.0,103,1.5734245625026417
-3.0596156344255907,0.5221459578606138,0.1585268214571657,0.47814795419915657,0.06899095394182937,0.9899539556299707,0.9906480966432493,0.9827225130890053,0.9902996335417116,1.0,562,0.9455919395465995,0.6408429157147765,0.9992753623188406,0.9611493322541481,0.0,136,1.5733310844498387
-3.0596156344255907,0.9236126636548955,0.2305844675740592,0.527038498994941,0.07265520706772798,0.9903027766150412,0.9909778423331702,0.9806282722513089,0.9939642164259539,1.0,533,0.9438287153652393,0.6395570111226766,0.9971014492753624,0.9595305544314043,0.0,129,1.5733127905804964
-1.046472798262,0.2036190182156168,0.1841473178542834,0.47814795419915657,0.07265520706772798,0.990163248221013,0.9908235967082385,0.9919720767888307,0.9795214485880578,1.0,491,0.936272040302267,0.6341046196315953,0.9978260869565218,0.9469850263051396,0.0,99,1.5732857028511
-3.0596156344255907,0.5221459578606138,0.1585268214571657,0.527038498994941,0.07265520706772798,0.9905120692060835,0.9911727321739248,0.9808027923211169,0.9943953438241,1.0,560,0.9430730478589421,0.6390119910701199,0.9978260869565218,0.9579117766086604,0.0,126,1.573254142503737
-1.046472798262,0.9236126636548955,0.2073658927141713,0.47814795419915657,0.06899095394182937,0.9900237198269848,0.9906942325723889,0.9914485165794066,0.9797370122871308,1.0,489,0.9370277078085643,0.6346444788074166,0.9971014492753624,0.9486038041278835,0.0,102,1.5732344327883365
-1.046472798262,0.9236126636548955,0.1841473178542834,0.47814795419915657,0.07265520706772798,0.9903725408120553,0.9910170970722426,0.9930191972076788,0.9788747574908385,1.0,494,0.9360201511335012,0.633923540840793,0.9978260869565218,0.9465803318494537,0.0,98,1.573233160557847
-1.046472798262,-0.070056743853622,0.2073658927141713,0.47814795419915657,0.06899095394182937,0.9897446630389284,0.9904359679782125,0.9902268760907504,0.9803837033843501,1.0,485,0.93727959697733,0.6348257906767912,0.9971014492753624,0.9490084985835694,0.0,103,1.573218210877944
-3.0596156344255907,0.2036190182156168,0.2073658927141713,0.47814795419915657,0.07265520706772798,0.9896748988419143,0.9903879466068576,0.9825479930191972,0.9896529424444923,1.0,544,0.944080604534005,0.639739651698097,0.9971014492753624,0.9599352488870903,0.0,130,1.5731813407358315
-1.046472798262,-0.070056743853622,0.2305844675740592,0.47814795419915657,0.06292294085025782,0.9891865494628157,0.9899188709647316,0.9881326352530541,0.9812459581806424,1.0,477,0.9390428211586902,0.6360963214308737,0.9971014492753624,0.9518413597733711,0.0,110,1.5730132025328747
-1.046472798262,0.2036190182156168,0.2305844675740592,0.47814795419915657,0.06292294085025782,0.9891865494628157,0.9899188709647316,0.9881326352530541,0.9812459581806424,1.0,477,0.9390428211586902,0.6360963214308737,0.9971014492753624,0.9518413597733711,0.0,110,1.5730132025328747
-1.046472798262,0.5221459578606138,0.2305844675740592,0.47814795419915657,0.06292294085025782,0.9891865494628157,0.9899188709647316,0.9881326352530541,0.9812459581806424,1.0,477,0.9390428211586902,0.6360963214308737,0.9971014492753624,0.9518413597733711,0.0,110,1.5730132025328747
-3.0596156344255907,0.9236126636548955,0.2073658927141713,0.527038498994941,0.0658296225592494,0.9905120692060835,0.9911743928467885,0.9799301919720768,0.9954731623194654,1.0,556,0.9483627204030227,0.6428523647066694,0.9971014492753624,0.9668150546337515,0.0,147,1.5729612458563051
-1.046472798262,-0.070056743853622,0.1841473178542834,0.47814795419915657,0.07265520706772798,0.9898144272359425,0.9904992097998276,0.9910994764397906,0.9795214485880578,1.0,486,0.936272040302267,0.6341046196315953,0.9978260869565218,0.9469850263051396,0.0,99,1.5729417686813612
-1.046472798262,0.5221459578606138,0.2073658927141713,0.47814795419915657,0.07265520706772798,0.9898144272359425,0.9904992097998276,0.9910994764397906,0.9795214485880578,1.0,486,0.9360201511335012,0.6339197087503551,0.9971014492753624,0.9469850263051396,0.0,98,1.5729417686813612
-3.0596156344255907,0.9236126636548955,0.2073658927141713,0.527038498994941,0.06899095394182937,0.9903725408120553,0.9910439325625813,0.9801047120418848,0.9948264712222462,1.0,552,0.9458438287153652,0.6410195580479158,0.9971014492753624,0.9627681100768919,0.0,137,1.5729212447909697
-3.0596156344255907,0.5221459578606138,0.1585268214571657,0.47814795419915657,0.0658296225592494,0.9898841914329566,0.990584432772499,0.9820244328097731,0.9909463246389308,1.0,567,0.9473551637279597,0.6421239769662545,0.9992753623188406,0.9639821934439499,0.0,143,1.5728995911699677
-3.0596156344255907,0.5221459578606138,0.1841473178542834,0.47814795419915657,0.06899095394182937,0.9897446630389284,0.9904538225382669,0.9821989528795811,0.9902996335417116,1.0,561,0.9463476070528968,0.6413876976873619,0.9978260869565218,0.9631728045325779,0.0,139,1.572887465793433
-2.526588962399171,0.5221459578606138,0.1585268214571657,0.443077580731583,0.06292294085025782,0.9905818334030976,0.9912091197716807,0.9947643979057592,0.977365811597327,1.0,497,0.9486146095717884,0.6430405638485029,0.9992753623188406,0.9660056657223796,0.0,148,1.5728354208131639
-3.0596156344255907,-0.070056743853622,0.1841473178542834,0.47814795419915657,0.07265520706772798,0.9895353704478862,0.9902584340033848,0.9821989528795811,0.9896529424444923,1.0,548,0.9443324937027707,0.6399247110727474,0.9978260869565218,0.9599352488870903,0.0,131,1.572820482407651
-1.046472798262,0.2036190182156168,0.2073658927141713,0.47814795419915657,0.07265520706772798,0.9896748988419143,0.9903694732184462,0.9907504363001746,0.9795214485880578,1.0,484,0.9360201511335012,0.6339197087503551,0.9971014492753624,0.9469850263051396,0.0,98,1.5728041986498624
-2.526588962399171,0.2036190182156168,0.1585268214571657,0.443077580731583,0.06292294085025782,0.9903725408120553,0.991014751680917,0.9940663176265271,0.9775813752964001,1.0,494,0.9486146095717884,0.6430405638485029,0.9992753623188406,0.9660056657223796,0.0,148,1.5727153386018065
-3.0596156344255907,0.5221459578606138,0.1841473178542834,0.527038498994941,0.07265520706772798,0.9903027766150412,0.9909788638806116,0.9801047120418848,0.994610907523173,1.0,561,0.9443324937027707,0.6399247110727474,0.9978260869565218,0.9599352488870903,0.0,131,1.5727128913029362
-1.046472798262,-0.070056743853622,0.2305844675740592,0.47814795419915657,0.0658296225592494,0.9890470210687875,0.9897883649066342,0.9881326352530541,0.9808148307824962,1.0,475,0.9382871536523929,0.6355515184898438,0.9971014492753624,0.9506272764063133,0.0,107,1.5727030276467744
-1.046472798262,0.2036190182156168,0.2305844675740592,0.47814795419915657,0.0658296225592494,0.9890470210687875,0.9897883649066342,0.9881326352530541,0.9808148307824962,1.0,475,0.9382871536523929,0.6355515184898438,0.9971014492753624,0.9506272764063133,0.0,107,1.5727030276467744
-1.046472798262,0.5221459578606138,0.2305844675740592,0.47814795419915657,0.0658296225592494,0.9890470210687875,0.9897883649066342,0.9881326352530541,0.9808148307824962,1.0,475,0.9382871536523929,0.6355515184898438,0.9971014492753624,0.9506272764063133,0.0,107,1.5727030276467744
-2.526588962399171,0.5221459578606138,0.1585268214571657,0.443077580731583,0.0658296225592494,0.9905818334030976,0.9912083459223692,0.9951134380453752,0.9769346841991808,1.0,497,0.9473551637279597,0.6421239769662545,0.9992753623188406,0.9639821934439499,0.0,143,1.572662815084043
-1.046472798262,0.9236126636548955,0.2305844675740592,0.47814795419915657,0.06292294085025782,0.9890470210687875,0.9897879371284283,0.9883071553228622,0.9805992670834232,1.0,475,0.9387909319899245,0.6359146719618164,0.9971014492753624,0.9514366653176851,0.0,109,1.572616716611504
-1.046472798262,0.9236126636548955,0.2073658927141713,0.47814795419915657,0.07265520706772798,0.9897446630389284,0.9904331114617805,0.9914485165794066,0.9788747574908385,1.0,485,0.9357682619647355,0.6337386351065496,0.9971014492753624,0.9465803318494537,0.0,97,1.572614061217253
-1.046472798262,-0.070056743853622,0.2073658927141713,0.47814795419915657,0.07265520706772798,0.9894656062508721,0.9901748877313193,0.9902268760907504,0.9795214485880578,1.0,481,0.9360201511335012,0.6339197087503551,0.9971014492753624,0.9469850263051396,0.0,98,1.5725978474796034
-3.0596156344255907,0.5221459578606138,0.1841473178542834,0.47814795419915657,0.0658296225592494,0.9897446630389284,0.990454931931454,0.981675392670157,0.9909463246389308,1.0,567,0.9486146095717884,0.6430374898536928,0.9978260869565218,0.9668150546337515,0.0,148,1.5725945465518838
-2.526588962399171,0.9236126636548955,0.1585268214571657,0.443077580731583,0.06292294085025782,0.9905120692060835,0.9911430272247918,0.9951134380453752,0.9767191205001078,1.0,496,0.9483627204030227,0.6428571428571429,0.9992753623188406,0.9656009712666936,0.0,147,1.572507714507287
-3.0596156344255907,0.5221459578606138,0.2305844675740592,0.47814795419915657,0.07265520706772798,0.9892563136598298,0.9899990482716184,0.981675392670157,0.9894373787454193,1.0,532,0.944080604534005,0.639739651698097,0.9971014492753624,0.9599352488870903,0.0,130,1.572503369819917
-2.526588962399171,0.2036190182156168,0.1585268214571657,0.443077580731583,0.0658296225592494,0.9903027766150412,0.99094904655981,0.9942408376963351,0.9771502478982539,1.0,493,0.9473551637279597,0.6421239769662545,0.9992753623188406,0.9639821934439499,0.0,143,1.5724739352607153
-3.0596156344255907,0.9236126636548955,0.2073658927141713,0.527038498994941,0.06292294085025782,0.9903725408120553,0.9910456071897369,0.9792321116928446,0.9959042897176116,1.0,560,0.9496221662468514,0.6437707233446871,0.9971014492753624,0.9688385269121813,0.0,152,1.5724609168615624
-3.0596156344255907,0.9236126636548955,0.2305844675740592,0.47814795419915657,0.0658296225592494,0.989395842053858,0.9901300790463884,0.981326352530541,0.9902996335417116,1.0,538,0.9483627204030227,0.6428523647066694,0.9971014492753624,0.9668150546337515,0.0,147,1.5724457712766358
-3.0596156344255907,0.2036190182156168,0.1585268214571657,0.47814795419915657,0.06899095394182937,0.9896051346449002,0.9903246929869128,0.981675392670157,0.9905151972407846,1.0,567,0.9455919395465995,0.6408429157147765,0.9992753623188406,0.9611493322541481,0.0,136,1.5724289703689474
-3.0596156344255907,0.5221459578606138,0.1585268214571657,0.47814795419915657,0.06292294085025782,0.9897446630389284,0.990455667797856,0.981326352530541,0.991377452037077,1.0,569,0.9486146095717884,0.6430405638485029,0.9992753623188406,0.9660056657223796,0.0,148,1.5724271719905123
-3.0596156344255907,0.9236126636548955,0.2305844675740592,0.47814795419915657,0.06899095394182937,0.9892563136598298,0.9899994368512046,0.981500872600349,0.9896529424444923,1.0,534,0.9458438287153652,0.6410195580479158,0.9971014492753624,0.9627681100768919,0.0,137,1.572405733829105
-1.046472798262,-0.070056743853622,0.2305844675740592,0.47814795419915657,0.06899095394182937,0.9889074926747593,0.989657847155542,0.9881326352530541,0.9803837033843501,1.0,473,0.93727959697733,0.6348257906767912,0.9971014492753624,0.9490084985835694,0.0,103,1.5723928504220748
-1.046472798262,0.2036190182156168,0.2305844675740592,0.47814795419915657,0.06899095394182937,0.9889074926747593,0.989657847155542,0.9881326352530541,0.9803837033843501,1.0,473,0.93727959697733,0.6348257906767912,0.9971014492753624,0.9490084985835694,0.0,103,1.5723928504220748
-1.046472798262,0.5221459578606138,0.2305844675740592,0.47814795419915657,0.06899095394182937,0.9889074926747593,0.989657847155542,0.9881326352530541,0.9803837033843501,1.0,473,0.93727959697733,0.6348257906767912,0.9971014492753624,0.9490084985835694,0.0,103,1.5723928504220748
-2.526588962399171,0.5221459578606138,0.1585268214571657,0.443077580731583,0.06899095394182937,0.9905120692060835,0.9911422441333252,0.9954624781849912,0.9762879931019617,1.0,496,0.9455919395465995,0.6408429157147765,0.9992753623188406,0.9611493322541481,0.0,136,1.5723351069297353
-2.526588962399171,0.9236126636548955,0.1585268214571657,0.443077580731583,0.0658296225592494,0.9905120692060835,0.9911422441333252,0.9954624781849912,0.9762879931019617,1.0,496,0.947103274559194,0.6419408145071862,0.9992753623188406,0.9635774989882638,0.0,142,1.5723351069297353
-1.046472798262,0.9236126636548955,0.2305844675740592,0.47814795419915657,0.0658296225592494,0.9889074926747593,0.9896574131130493,0.9883071553228622,0.980168139685277,1.0,473,0.9380352644836272,0.6353700142915197,0.9971014492753624,0.9502225819506273,0.0,106,1.572306538133947
-3.0596156344255907,-0.070056743853622,0.2073658927141713,0.47814795419915657,0.07265520706772798,0.9892563136598298,0.9899994368512046,0.981500872600349,0.9896529424444923,1.0,544,0.944080604534005,0.639739651698097,0.9971014492753624,0.9599352488870903,0.0,130,1.572266205435077
-2.526588962399171,-0.070056743853622,0.1585268214571657,0.443077580731583,0.06292294085025782,0.9898841914329566,0.9905604190268483,0.9928446771378708,0.9775813752964001,1.0,487,0.9486146095717884,0.6430405638485029,0.9992753623188406,0.9660056657223796,0.0,148,1.5722337925677137
-3.0596156344255907,0.2036190182156168,0.1585268214571657,0.527038498994941,0.07265520706772798,0.9900934840239989,0.9907846824741746,0.9795811518324608,0.994610907523173,1.0,566,0.9430730478589421,0.6390119910701199,0.9978260869565218,0.9579117766086604,0.0,126,1.572185574149823
-2.526588962399171,0.5221459578606138,0.1841473178542834,0.443077580731583,0.06292294085025782,0.9898841914329566,0.9905600083003842,0.9930191972076788,0.977365811597327,1.0,487,0.9498740554156171,0.6439558660562629,0.9978260869565218,0.9688385269121813,0.0,153,1.5721474849427917
-2.526588962399171,0.2036190182156168,0.1585268214571657,0.443077580731583,0.06899095394182937,0.9902330124180271,0.9908829300031905,0.9945898778359511,0.9765035568010347,1.0,492,0.9455919395465995,0.6408429157147765,0.9992753623188406,0.9611493322541481,0.0,136,1.5721462241528925
-2.526588962399171,0.2036190182156168,0.1841473178542834,0.443077580731583,0.06292294085025782,0.9897446630389284,0.9904306335444716,0.9924956369982548,0.9775813752964001,1.0,485,0.9498740554156171,0.6439558660562629,0.9978260869565218,0.9688385269121813,0.0,153,1.5720962127560159
-3.0596156344255907,0.9236126636548955,0.2305844675740592,0.47814795419915657,0.06292294085025782,0.9893260778568439,0.9900661032181767,0.9808027923211169,0.9907307609398577,1.0,543,0.9498740554156171,0.6439545531242179,0.9971014492753624,0.9692432213678672,0.0,153,1.5720840236331957
-2.526588962399171,0.9236126636548955,0.1585268214571657,0.443077580731583,0.06899095394182937,0.9904423050090694,0.9910761235334156,0.9958115183246073,0.9756413020047424,1.0,495,0.9453400503778338,0.6406601109728887,0.9992753623188406,0.9607446377984622,0.0,135,1.5720073950132543
-1.046472798262,0.9236126636548955,0.2305844675740592,0.47814795419915657,0.06899095394182937,0.9887679642807311,0.9895268773530267,0.9883071553228622,0.9797370122871308,1.0,471,0.9370277078085643,0.6346444788074166,0.9971014492753624,0.9486038041278835,0.0,102,1.5719963573074613
-2.526588962399171,0.5221459578606138,0.1841473178542834,0.443077580731583,0.0658296225592494,0.9898841914329566,0.9905591846061107,0.993368237347295,0.9769346841991808,1.0,487,0.9486146095717884,0.6430374898536928,0.9978260869565218,0.9668150546337515,0.0,148,1.5719748692446784
-3.0596156344255907,0.5221459578606138,0.1841473178542834,0.47814795419915657,0.06292294085025782,0.9895353704478862,0.990261446674353,0.9808027923211169,0.991377452037077,1.0,570,0.9498740554156171,0.6439558660562629,0.9978260869565218,0.9688385269121813,0.0,153,1.5719556582515972
-2.526588962399171,-0.070056743853622,0.1585268214571657,0.443077580731583,0.0658296225592494,0.9897446630389284,0.9904298015183204,0.9928446771378708,0.9771502478982539,1.0,485,0.9473551637279597,0.6421239769662545,0.9992753623188406,0.9639821934439499,0.0,143,1.5719235953915274
-3.0596156344255907,0.9236126636548955,0.2305844675740592,0.527038498994941,0.06899095394182937,0.9898841914329566,0.9905908729111053,0.9788830715532286,0.9948264712222462,1.0,547,0.9458438287153652,0.6410195580479158,0.9971014492753624,0.9627681100768919,0.0,137,1.5719233914831274
-3.0596156344255907,0.2036190182156168,0.2305844675740592,0.47814795419915657,0.07265520706772798,0.9890470210687875,0.9898052134157402,0.980977312390925,0.9896529424444923,1.0,537,0.944080604534005,0.639739651698097,0.9971014492753624,0.9599352488870903,0.0,130,1.571906313948992
-3.0596156344255907,0.5221459578606138,0.2073658927141713,0.47814795419915657,0.06899095394182937,0.9892563136598298,0.9900005979004053,0.980977312390925,0.9902996335417116,1.0,556,0.9460957178841309,0.641202606204176,0.9971014492753624,0.9631728045325779,0.0,138,1.5718895794883139
-2.526588962399171,0.2036190182156168,0.1841473178542834,0.443077580731583,0.0658296225592494,0.9896748988419143,0.9903649078347164,0.9926701570680628,0.9771502478982539,1.0,484,0.9486146095717884,0.6430374898536928,0.9978260869565218,0.9668150546337515,0.0,148,1.5718548052971952
-3.0596156344255907,0.5221459578606138,0.2073658927141713,0.527038498994941,0.07265520706772798,0.9898841914329566,0.9905905213633335,0.9790575916230366,0.994610907523173,1.0,557,0.944080604534005,0.639739651698097,0.9971014492753624,0.9599352488870903,0.0,130,1.571853600807468
-3.0596156344255907,0.9236126636548955,0.2305844675740592,0.527038498994941,0.0658296225592494,0.9899539556299707,0.9906566330674001,0.9785340314136126,0.9954731623194654,1.0,552,0.9483627204030227,0.6428523647066694,0.9971014492753624,0.9668150546337515,0.0,147,1.57179692745854
-2.526588962399171,0.5221459578606138,0.1585268214571657,0.443077580731583,0.07265520706772798,0.9903027766150412,0.9909458479645603,0.9956369982547993,0.9754257383056694,1.0,493,0.9435768261964735,0.6393818918360027,0.9992753623188406,0.9579117766086604,0.0,128,1.5717834917046316
-1.046472798262,-0.070056743853622,0.2305844675740592,0.47814795419915657,0.07265520706772798,0.9886284358867029,0.9893967764505799,0.9881326352530541,0.9795214485880578,1.0,469,0.9360201511335012,0.6339197087503551,0.9971014492753624,0.9469850263051396,0.0,98,1.57177248893212
-1.046472798262,0.2036190182156168,0.2305844675740592,0.47814795419915657,0.07265520706772798,0.9886284358867029,0.9893967764505799,0.9881326352530541,0.9795214485880578,1.0,469,0.9360201511335012,0.6339197087503551,0.9971014492753624,0.9469850263051396,0.0,98,1.57177248893212
-1.046472798262,0.5221459578606138,0.2305844675740592,0.47814795419915657,0.07265520706772798,0.9886284358867029,0.9893967764505799,0.9881326352530541,0.9795214485880578,1.0,469,0.9360201511335012,0.6339197087503551,0.9971014492753624,0.9469850263051396,0.0,98,1.57177248893212
-2.526588962399171,-0.070056743853622,0.1841473178542834,0.443077580731583,0.06292294085025782,0.989395842053858,0.9901062158948729,0.9916230366492147,0.9775813752964001,1.0,480,0.9498740554156171,0.6439558660562629,0.9978260869565218,0.9688385269121813,0.0,153,1.5717522724380397
-2.526588962399171,0.9236126636548955,0.1841473178542834,0.443077580731583,0.06292294085025782,0.9897446630389284,0.9904289664627467,0.993193717277487,0.9767191205001078,1.0,485,0.9496221662468514,0.643772085649342,0.9978260869565218,0.9684338324564954,0.0,152,1.571750977421154
-3.0596156344255907,0.2036190182156168,0.1841473178542834,0.47814795419915657,0.06899095394182937,0.9892563136598298,0.9900009833542128,0.9808027923211169,0.9905151972407846,1.0,568,0.9463476070528968,0.6413876976873619,0.9978260869565218,0.9631728045325779,0.0,139,1.5716524144783184
-2.526588962399171,0.2036190182156168,0.2073658927141713,0.443077580731583,0.06292294085025782,0.9892563136598298,0.9899764671770047,0.9912739965095986,0.9775813752964001,1.0,478,0.9498740554156171,0.6439545531242179,0.9971014492753624,0.9692432213678672,0.0,153,1.5716146999792437
-2.526588962399171,0.5221459578606138,0.2073658927141713,0.443077580731583,0.06292294085025782,0.9893260778568439,0.9900409099934663,0.9916230366492147,0.977365811597327,1.0,479,0.9498740554156171,0.6439545531242179,0.9971014492753624,0.9692432213678672,0.0,153,1.571597174420518
-3.0596156344255907,0.5221459578606138,0.2073658927141713,0.47814795419915657,0.0658296225592494,0.9892563136598298,0.9900017519190024,0.9804537521815009,0.9909463246389308,1.0,562,0.9486146095717884,0.6430359314063021,0.9971014492753624,0.9672197490894374,0.0,148,1.5715966691718468
-2.526588962399171,-0.070056743853622,0.1585268214571657,0.443077580731583,0.06899095394182937,0.9896748988419143,0.9903636467302589,0.993193717277487,0.9765035568010347,1.0,484,0.9455919395465995,0.6408429157147765,0.9992753623188406,0.9611493322541481,0.0,136,1.5715958766374158
-2.526588962399171,0.2036190182156168,0.1585268214571657,0.443077580731583,0.07265520706772798,0.9900237198269848,0.9906865363547301,0.9947643979057592,0.9756413020047424,1.0,489,0.9435768261964735,0.6393818918360027,0.9992753623188406,0.9579117766086604,0.0,128,1.5715946094318494
-2.526588962399171,0.9236126636548955,0.1841473178542834,0.443077580731583,0.0658296225592494,0.9897446630389284,0.9904281283762021,0.993542757417103,0.9762879931019617,1.0,485,0.9483627204030227,0.6428539718536072,0.9978260869565218,0.9664103601780656,0.0,147,1.5715783588445866
-2.526588962399171,0.5221459578606138,0.1841473178542834,0.443077580731583,0.06899095394182937,0.9896748988419143,0.9903632248363765,0.993368237347295,0.9762879931019617,1.0,484,0.9463476070528968,0.6413876976873619,0.9978260869565218,0.9631728045325779,0.0,139,1.5715095667790102
-3.0596156344255907,0.2036190182156168,0.1585268214571657,0.47814795419915657,0.0658296225592494,0.9893260778568439,0.9900668660165763,0.9804537521815009,0.9911618883380039,1.0,575,0.9473551637279597,0.6421239769662545,0.9992753623188406,0.9639821934439499,0.0,143,1.5714980692761389
-2.526588962399171,0.9236126636548955,0.1585268214571657,0.443077580731583,0.07265520706772798,0.9902330124180271,0.990879693936285,0.9959860383944154,0.9747790472084501,1.0,492,0.9433249370277078,0.6391994899149446,0.9992753623188406,0.9575070821529745,0.0,127,1.5714557731024776
-2.526588962399171,-0.070056743853622,0.1841473178542834,0.443077580731583,0.0658296225592494,0.9892563136598298,0.9899756010806186,0.9916230366492147,0.9771502478982539,1.0,478,0.9486146095717884,0.6430374898536928,0.9978260869565218,0.9668150546337515,0.0,148,1.571442075800708
-2.526588962399171,-0.070056743853622,0.2073658927141713,0.443077580731583,0.06292294085025782,0.9890470210687875,0.9897818636564505,0.9907504363001746,0.9775813752964001,1.0,475,0.9498740554156171,0.6439545531242179,0.9971014492753624,0.9692432213678672,0.0,153,1.571408345202299
-3.0596156344255907,-0.070056743853622,0.2305844675740592,0.47814795419915657,0.07265520706772798,0.9888377284777452,0.9896110108056159,0.9804537521815009,0.9896529424444923,1.0,540,0.944080604534005,0.639739651698097,0.9971014492753624,0.9599352488870903,0.0,130,1.5714068982339466
-2.526588962399171,0.2036190182156168,0.1841473178542834,0.443077580731583,0.06899095394182937,0.9894656062508721,0.9901689594541873,0.9926701570680628,0.9765035568010347,1.0,481,0.9463476070528968,0.6413876976873619,0.9978260869565218,0.9631728045325779,0.0,139,1.571389505109368
-1.046472798262,0.9236126636548955,0.2305844675740592,0.47814795419915657,0.07265520706772798,0.9884889074926747,0.9892657704751836,0.9883071553228622,0.9788747574908385,1.0,467,0.9357682619647355,0.6337386351065496,0.9971014492753624,0.9465803318494537,0.0,97,1.5713759885829306
-2.526588962399171,0.2036190182156168,0.2073658927141713,0.443077580731583,0.0658296225592494,0.9891865494628157,0.9899107258103744,0.9914485165794066,0.9771502478982539,1.0,477,0.9486146095717884,0.6430359314063021,0.9971014492753624,0.9672197490894374,0.0,148,1.571373289389048
-3.0596156344255907,0.5221459578606138,0.1585268214571657,0.527038498994941,0.06899095394182937,0.9898841914329566,0.9905915738083589,0.9785340314136126,0.9952575986203923,1.0,577,0.945088161209068,0.6404729490611628,0.9978260869565218,0.9611493322541481,0.0,134,1.5713653304246473
-2.526588962399171,0.5221459578606138,0.2073658927141713,0.443077580731583,0.0658296225592494,0.9892563136598298,0.9899751668434544,0.9917975567190227,0.9769346841991808,1.0,478,0.9486146095717884,0.6430359314063021,0.9971014492753624,0.9672197490894374,0.0,148,1.571355763473646
-3.0596156344255907,0.2036190182156168,0.1841473178542834,0.527038498994941,0.07265520706772798,0.9897446630389284,0.9904614475015919,0.9785340314136126,0.9948264712222462,1.0,569,0.9443324937027707,0.6399247110727474,0.9978260869565218,0.9599352488870903,0.0,131,1.571311399484488
-3.0596156344255907,0.9236126636548955,0.2305844675740592,0.527038498994941,0.06292294085025782,0.9898144272359425,0.9905279160416698,0.9778359511343805,0.9959042897176116,1.0,558,0.9498740554156171,0.6439545531242179,0.9971014492753624,0.9692432213678672,0.0,153,1.5712687065112558
-3.0596156344255907,-0.070056743853622,0.1585268214571657,0.47814795419915657,0.06899095394182937,0.9890470210687875,0.9898067852667835,0.9802792321116929,0.9905151972407846,1.0,567,0.9455919395465995,0.6408429157147765,0.9992753623188406,0.9611493322541481,0.0,136,1.5712088110254232
-2.526588962399171,0.9236126636548955,0.2073658927141713,0.443077580731583,0.06292294085025782,0.9891865494628157,0.9899098516965515,0.9917975567190227,0.9767191205001078,1.0,477,0.9496221662468514,0.6437707233446871,0.9971014492753624,0.9688385269121813,0.0,152,1.5712006636070248
-3.0596156344255907,0.2036190182156168,0.1585268214571657,0.47814795419915657,0.06292294085025782,0.9892563136598298,0.9900028989117712,0.9799301919720768,0.99159301573615,1.0,578,0.9486146095717884,0.6430405638485029,0.9992753623188406,0.9660056657223796,0.0,148,1.5711642290561856
-2.526588962399171,0.9236126636548955,0.1841473178542834,0.443077580731583,0.06899095394182937,0.9895353704478862,0.9902321406339634,0.993542757417103,0.9756413020047424,1.0,482,0.9460957178841309,0.6412046456294244,0.9978260869565218,0.9627681100768919,0.0,138,1.571113050784417
-2.526588962399171,-0.070056743853622,0.2073658927141713,0.443077580731583,0.0658296225592494,0.9889074926747593,0.9896512508423964,0.9907504363001746,0.9771502478982539,1.0,473,0.9486146095717884,0.6430359314063021,0.9971014492753624,0.9672197490894374,0.0,148,1.571098148965007
-3.0596156344255907,0.5221459578606138,0.2073658927141713,0.47814795419915657,0.06292294085025782,0.9891167852658016,0.9898730664301058,0.9797556719022688,0.991377452037077,1.0,566,0.9498740554156171,0.6439545531242179,0.9971014492753624,0.9692432213678672,0.0,153,1.571096360210735
-2.526588962399171,-0.070056743853622,0.1585268214571657,0.443077580731583,0.07265520706772798,0.9894656062508721,0.9901672376705465,0.993368237347295,0.9756413020047424,1.0,481,0.9435768261964735,0.6393818918360027,0.9992753623188406,0.9579117766086604,0.0,128,1.5710442588341227
-2.526588962399171,-0.070056743853622,0.1841473178542834,0.443077580731583,0.06899095394182937,0.9890470210687875,0.9897796562345716,0.9916230366492147,0.9765035568010347,1.0,475,0.9463476070528968,0.6413876976873619,0.9978260869565218,0.9631728045325779,0.0,139,1.5709767763197773
-2.526588962399171,0.9236126636548955,0.2073658927141713,0.443077580731583,0.0658296225592494,0.9891167852658016,0.9898440920419985,0.9919720767888307,0.9762879931019617,1.0,476,0.9483627204030227,0.6428523647066694,0.9971014492753624,0.9668150546337515,0.0,147,1.5709592493592444
-3.0596156344255907,0.5221459578606138,0.1585268214571657,0.527038498994941,0.0658296225592494,0.9898144272359425,0.9905279160416698,0.9778359511343805,0.9959042897176116,1.0,582,0.9468513853904282,0.641753956006314,0.9978260869565218,0.9639821934439499,0.0,141,1.5709338383655882
-2.526588962399171,0.2036190182156168,0.2073658927141713,0.443077580731583,0.06899095394182937,0.9889772568717734,0.989714781566661,0.9914485165794066,0.9765035568010347,1.0,474,0.9460957178841309,0.641202606204176,0.9971014492753624,0.9631728045325779,0.0,138,1.5709079900285836
-2.526588962399171,0.5221459578606138,0.2073658927141713,0.443077580731583,0.06899095394182937,0.9890470210687875,0.989779212325622,0.9917975567190227,0.9762879931019617,1.0,475,0.9460957178841309,0.641202606204176,0.9971014492753624,0.9631728045325779,0.0,138,1.5708904620583581
-2.526588962399171,0.5221459578606138,0.1841473178542834,0.443077580731583,0.07265520706772798,0.989395842053858,0.9901019025090828,0.993368237347295,0.9754257383056694,1.0,480,0.9443324937027707,0.6399247110727474,0.9978260869565218,0.9599352488870903,0.0,131,1.5708891549645896
-3.0596156344255907,0.5221459578606138,0.2305844675740592,0.527038498994941,0.07265520706772798,0.989395842053858,0.9901375571267002,0.9778359511343805,0.994610907523173,1.0,552,0.944080604534005,0.639739651698097,0.9971014492753624,0.9599352488870903,0.0,130,1.5708557665825944
-3.0596156344255907,0.5221459578606138,0.1841473178542834,0.527038498994941,0.06899095394182937,0.9896748988419143,0.9903978067575786,0.9778359511343805,0.9954731623194654,1.0,578,0.9463476070528968,0.6413876976873619,0.9978260869565218,0.9631728045325779,0.0,139,1.570824099472353
-3.0596156344255907,-0.070056743853622,0.1585268214571657,0.527038498994941,0.07265520706772798,0.9894656062508721,0.9902022596211187,0.9780104712041885,0.994610907523173,1.0,567,0.9430730478589421,0.6390119910701199,0.9978260869565218,0.9579117766086604,0.0,126,1.5707989867153733
-3.0596156344255907,0.2036190182156168,0.2073658927141713,0.47814795419915657,0.06899095394182937,0.9888377284777452,0.9896126078237278,0.9797556719022688,0.9905151972407846,1.0,564,0.9460957178841309,0.641202606204176,0.9971014492753624,0.9631728045325779,0.0,138,1.5707931173802085
-2.526588962399171,0.2036190182156168,0.1841473178542834,0.443077580731583,0.07265520706772798,0.9891865494628157,0.9899076524405347,0.9926701570680628,0.9756413020047424,1.0,477,0.9443324937027707,0.6399247110727474,0.9978260869565218,0.9599352488870903,0.0,131,1.5707690963576753
-3.0596156344255907,0.2036190182156168,0.1841473178542834,0.47814795419915657,0.0658296225592494,0.9889772568717734,0.9897432339484405,0.9795811518324608,0.9911618883380039,1.0,578,0.9486146095717884,0.6430374898536928,0.9978260869565218,0.9668150546337515,0.0,148,1.5706936232196167
-2.526588962399171,-0.070056743853622,0.2073658927141713,0.443077580731583,0.06899095394182937,0.988698200083717,0.9894553090458512,0.9907504363001746,0.9765035568010347,1.0,470,0.9460957178841309,0.641202606204176,0.9971014492753624,0.9631728045325779,0.0,138,1.5706328500939766
-3.0596156344255907,0.5221459578606138,0.2305844675740592,0.47814795419915657,0.06899095394182937,0.9886284358867029,0.9894180466611094,0.9794066317626527,0.9902996335417116,1.0,549,0.9460957178841309,0.641202606204176,0.9971014492753624,0.9631728045325779,0.0,138,1.5706145890918386
-3.0596156344255907,0.2036190182156168,0.2073658927141713,0.527038498994941,0.07265520706772798,0.989395842053858,0.9901379229578011,0.9776614310645724,0.9948264712222462,1.0,566,0.944080604534005,0.639739651698097,0.9971014492753624,0.9599352488870903,0.0,130,1.570590691969252
-2.526588962399171,0.2036190182156168,0.2305844675740592,0.443077580731583,0.06292294085025782,0.9882098507046184,0.9890036822953178,0.9886561954624782,0.9775813752964001,1.0,465,0.9503778337531487,0.6443223715526581,0.9971014492753624,0.9700526102792392,0.0,155,1.5705550669599313
-3.0596156344255907,0.5221459578606138,0.1841473178542834,0.527038498994941,0.0658296225592494,0.9896748988419143,0.9903988686444617,0.9773123909249564,0.9961198534166846,1.0,584,0.9486146095717884,0.6430374898536928,0.9978260869565218,0.9668150546337515,0.0,148,1.5705311707295433
-2.526588962399171,0.9236126636548955,0.2073658927141713,0.443077580731583,0.06899095394182937,0.9889074926747593,0.9896481096239453,0.9919720767888307,0.9756413020047424,1.0,473,0.9458438287153652,0.6410195580479158,0.9971014492753624,0.9627681100768919,0.0,137,1.5704939423639122
-2.526588962399171,0.9236126636548955,0.1841473178542834,0.443077580731583,0.07265520706772798,0.9892563136598298,0.9899707808280729,0.993542757417103,0.9747790472084501,1.0,478,0.944080604534005,0.6397420663404914,0.9978260869565218,0.9595305544314043,0.0,130,1.5704926314742773
-2.526588962399171,-0.070056743853622,0.2305844675740592,0.443077580731583,0.06292294085025782,0.9881400865076043,0.988938850523474,0.9884816753926702,0.9775813752964001,1.0,464,0.9503778337531487,0.6443223715526581,0.9971014492753624,0.9700526102792392,0.0,155,1.5704862892479514
-2.526588962399171,0.5221459578606138,0.2305844675740592,0.443077580731583,0.06292294085025782,0.9881400865076043,0.9889383799115814,0.9886561954624782,0.977365811597327,1.0,464,0.9503778337531487,0.6443223715526581,0.9971014492753624,0.9700526102792392,0.0,155,1.5703999696459436
-2.526588962399171,-0.070056743853622,0.1841473178542834,0.443077580731583,0.07265520706772798,0.9887679642807311,0.9895183540438749,0.9916230366492147,0.9756413020047424,1.0,471,0.9443324937027707,0.6399247110727474,0.9978260869565218,0.9599352488870903,0.0,131,1.5703563685326756
-3.0596156344255907,0.5221459578606138,0.1585268214571657,0.527038498994941,0.06292294085025782,0.9896051346449002,0.9903345281285972,0.9769633507853404,0.9963354171157577,1.0,585,0.9481108312342569,0.6426705060297508,0.9978260869565218,0.9660056657223796,0.0,146,1.5702949695341069
-2.526588962399171,0.2036190182156168,0.2073658927141713,0.443077580731583,0.07265520706772798,0.988698200083717,0.98945348019746,0.9914485165794066,0.9756413020047424,1.0,470,0.944080604534005,0.639739651698097,0.9971014492753624,0.9599352488870903,0.0,130,1.5702875824057814
-3.0596156344255907,-0.070056743853622,0.1585268214571657,0.47814795419915657,0.0658296225592494,0.9887679642807311,0.9895490820374514,0.9790575916230366,0.9911618883380039,1.0,575,0.9473551637279597,0.6421239769662545,0.9992753623188406,0.9639821934439499,0.0,143,1.5702779346808153
-2.526588962399171,0.5221459578606138,0.2073658927141713,0.443077580731583,0.07265520706772798,0.9887679642807311,0.9895178971663849,0.9917975567190227,0.9754257383056694,1.0,471,0.944080604534005,0.639739651698097,0.9971014492753624,0.9599352488870903,0.0,130,1.5702700516775485
-2.526588962399171,0.2036190182156168,0.2305844675740592,0.443077580731583,0.0658296225592494,0.9880703223105902,0.9888730745386982,0.9886561954624782,0.9771502478982539,1.0,463,0.9488664987405542,0.6432195505180327,0.9971014492753624,0.9676244435451234,0.0,149,1.5702448717341266
-3.0596156344255907,0.2036190182156168,0.1841473178542834,0.47814795419915657,0.06292294085025782,0.9888377284777452,0.9896145858529405,0.9788830715532286,0.99159301573615,1.0,582,0.9498740554156171,0.6439558660562629,0.9978260869565218,0.9688385269121813,0.0,153,1.5701933217371844
-2.526588962399171,-0.070056743853622,0.2305844675740592,0.443077580731583,0.0658296225592494,0.9880005581135761,0.9888082432046588,0.9884816753926702,0.9771502478982539,1.0,462,0.9488664987405542,0.6432195505180327,0.9971014492753624,0.9676244435451234,0.0,149,1.5701760941097074
-3.0596156344255907,-0.070056743853622,0.1841473178542834,0.47814795419915657,0.06899095394182937,0.9885586716896888,0.9893537365034447,0.9790575916230366,0.9905151972407846,1.0,570,0.9463476070528968,0.6413876976873619,0.9978260869565218,0.9631728045325779,0.0,139,1.5700993371799858
-2.526588962399171,0.5221459578606138,0.2305844675740592,0.443077580731583,0.0658296225592494,0.9880005581135761,0.9888077661727888,0.9886561954624782,0.9769346841991808,1.0,462,0.9488664987405542,0.6432195505180327,0.9971014492753624,0.9676244435451234,0.0,149,1.570089773223704
-2.526588962399171,-0.070056743853622,0.2073658927141713,0.443077580731583,0.07265520706772798,0.9884191432956607,0.9891940110130742,0.9907504363001746,0.9756413020047424,1.0,466,0.944080604534005,0.639739651698097,0.9971014492753624,0.9599352488870903,0.0,130,1.5700124431384592
-3.0596156344255907,0.5221459578606138,0.2305844675740592,0.47814795419915657,0.0658296225592494,0.9884889074926747,0.9892898386166603,0.9785340314136126,0.9909463246389308,1.0,557,0.9488664987405542,0.6432195505180327,0.9971014492753624,0.9676244435451234,0.0,149,1.5699887562340817
-3.0596156344255907,0.2036190182156168,0.1585268214571657,0.527038498994941,0.06899095394182937,0.9893260778568439,0.9900743236210382,0.9769633507853404,0.9954731623194654,1.0,585,0.945088161209068,0.6404729490611628,0.9978260869565218,0.9611493322541481,0.0,134,1.5699638718445388
-2.526588962399171,0.9236126636548955,0.2305844675740592,0.443077580731583,0.06292294085025782,0.987930793916562,0.988742454809973,0.9886561954624782,0.9767191205001078,1.0,461,0.9498740554156171,0.6439545531242179,0.9971014492753624,0.9692432213678672,0.0,153,1.5699346741139006
-3.0596156344255907,-0.070056743853622,0.1585268214571657,0.47814795419915657,0.06292294085025782,0.988698200083717,0.9894851662659986,0.9785340314136126,0.99159301573615,1.0,580,0.9486146095717884,0.6430405638485029,0.9992753623188406,0.9660056657223796,0.0,148,1.5699161990487271
-2.526588962399171,0.2036190182156168,0.2305844675740592,0.443077580731583,0.06899095394182937,0.987930793916562,0.9887419736714914,0.9888307155322862,0.9765035568010347,1.0,459,0.9460957178841309,0.641202606204176,0.9971014492753624,0.9631728045325779,0.0,138,1.5698762580853804
-2.526588962399171,0.9236126636548955,0.2073658927141713,0.443077580731583,0.07265520706772798,0.9886284358867029,0.9893867570826269,0.9919720767888307,0.9747790472084501,1.0,469,0.9438287153652393,0.6395570111226766,0.9971014492753624,0.9595305544314043,0.0,129,1.5698735245066864
-3.0596156344255907,0.2036190182156168,0.2073658927141713,0.47814795419915657,0.0658296225592494,0.9885586716896888,0.9893549504992641,0.9785340314136126,0.9911618883380039,1.0,574,0.9486146095717884,0.6430359314063021,0.9971014492753624,0.9672197490894374,0.0,148,1.5698343445377687
-2.526588962399171,-0.070056743853622,0.2305844675740592,0.443077580731583,0.06899095394182937,0.9878610297195479,0.98867714044637,0.9886561954624782,0.9765035568010347,1.0,458,0.9460957178841309,0.641202606204176,0.9971014492753624,0.9631728045325779,0.0,138,1.569807480082745
-3.0596156344255907,0.5221459578606138,0.1841473178542834,0.527038498994941,0.06292294085025782,0.989395842053858,0.9901408219868412,0.9762652705061082,0.9965509808148307,1.0,588,0.9498740554156171,0.6439558660562629,0.9978260869565218,0.9688385269121813,0.0,153,1.5697258450848122
-2.526588962399171,0.5221459578606138,0.2305844675740592,0.443077580731583,0.06899095394182937,0.9878610297195479,0.9886766560796704,0.9888307155322862,0.9762879931019617,1.0,458,0.9460957178841309,0.641202606204176,0.9971014492753624,0.9631728045325779,0.0,138,1.569721157729776
-3.0596156344255907,0.5221459578606138,0.2073658927141713,0.527038498994941,0.06899095394182937,0.9891167852658016,0.9898802600921126,0.9764397905759162,0.9954731623194654,1.0,576,0.9460957178841309,0.641202606204176,0.9971014492753624,0.9631728045325779,0.0,138,1.5696319180185674
-2.526588962399171,0.9236126636548955,0.2305844675740592,0.443077580731583,0.0658296225592494,0.9877912655225338,0.9886118230780983,0.9886561954624782,0.9762879931019617,1.0,459,0.9483627204030227,0.6428523647066694,0.9971014492753624,0.9668150546337515,0.0,147,1.5696244740930445
-3.0596156344255907,0.2036190182156168,0.2305844675740592,0.527038498994941,0.07265520706772798,0.9889074926747593,0.9896850814100985,0.9764397905759162,0.9948264712222462,1.0,561,0.944080604534005,0.639739651698097,0.9971014492753624,0.9599352488870903,0.0,130,1.5695928822821643
-3.0596156344255907,0.2036190182156168,0.2305844675740592,0.47814795419915657,0.06899095394182937,0.9882098507046184,0.9890301983407004,0.9781849912739965,0.9905151972407846,1.0,557,0.9460957178841309,0.641202606204176,0.9971014492753624,0.9631728045325779,0.0,138,1.569518155334987
-3.0596156344255907,-0.070056743853622,0.2073658927141713,0.47814795419915657,0.06899095394182937,0.9882098507046184,0.9890301983407004,0.9781849912739965,0.9905151972407846,1.0,567,0.9460957178841309,0.641202606204176,0.9971014492753624,0.9631728045325779,0.0,138,1.569378626940959
-3.0596156344255907,0.2036190182156168,0.2073658927141713,0.47814795419915657,0.06292294085025782,0.9884191432956607,0.9892263540599711,0.9778359511343805,0.99159301573615,1.0,578,0.9498740554156171,0.6439545531242179,0.9971014492753624,0.9692432213678672,0.0,153,1.5693340533865778
-3.0596156344255907,0.5221459578606138,0.2305844675740592,0.47814795419915657,0.06292294085025782,0.9882796149016325,0.989096551096838,0.9776614310645724,0.991377452037077,1.0,564,0.9503778337531487,0.6443223715526581,0.9971014492753624,0.9700526102792392,0.0,155,1.5692940961236395
-3.0596156344255907,-0.070056743853622,0.1841473178542834,0.527038498994941,0.07265520706772798,0.9888377284777452,0.9896203985345533,0.9762652705061082,0.9948264712222462,1.0,574,0.9443324937027707,0.6399247110727474,0.9978260869565218,0.9599352488870903,0.0,131,1.5692589865698812
-2.526588962399171,0.2036190182156168,0.2305844675740592,0.443077580731583,0.07265520706772798,0.9876517371285056,0.9884806852294906,0.9888307155322862,0.9756413020047424,1.0,455,0.944080604534005,0.639739651698097,0.9971014492753624,0.9599352488870903,0.0,130,1.5692558530480183
-2.526588962399171,0.9236126636548955,0.2305844675740592,0.443077580731583,0.06899095394182937,0.9876517371285056,0.9884806852294906,0.9888307155322862,0.9756413020047424,1.0,455,0.9458438287153652,0.6410195580479158,0.9971014492753624,0.9627681100768919,0.0,137,1.5692558530480183
-2.526588962399171,-0.070056743853622,0.2305844675740592,0.443077580731583,0.07265520706772798,0.9875819729314915,0.9884158529064461,0.9886561954624782,0.9756413020047424,1.0,454,0.944080604534005,0.639739651698097,0.9971014492753624,0.9599352488870903,0.0,130,1.5691870752257981
-3.0596156344255907,0.5221459578606138,0.2073658927141713,0.527038498994941,0.0658296225592494,0.9890470210687875,0.9898166923873012,0.9757417102966841,0.9961198534166846,1.0,583,0.9486146095717884,0.6430359314063021,0.9971014492753624,0.9672197490894374,0.0,148,1.5691725382930783
-2.526588962399171,0.5221459578606138,0.2305844675740592,0.443077580731583,0.07265520706772798,0.9875819729314915,0.9884153555749128,0.9888307155322862,0.9754257383056694,1.0,454,0.944080604534005,0.639739651698097,0.9971014492753624,0.9599352488870903,0.0,130,1.5691007502798622
-3.0596156344255907,0.2036190182156168,0.1585268214571657,0.527038498994941,0.0658296225592494,0.9889772568717734,0.9897520170042623,0.9755671902268761,0.9961198534166846,1.0,594,0.9468513853904282,0.641753956006314,0.9978260869565218,0.9639821934439499,0.0,141,1.568866549758102
-3.0596156344255907,-0.070056743853622,0.1841473178542834,0.47814795419915657,0.0658296225592494,0.9881400865076043,0.9889667481337053,0.9774869109947644,0.9911618883380039,1.0,582,0.9486146095717884,0.6430374898536928,0.9978260869565218,0.9668150546337515,0.0,148,1.5688076479998108
-3.0596156344255907,0.2036190182156168,0.1841473178542834,0.527038498994941,0.06899095394182937,0.9888377284777452,0.9896219178808855,0.9755671902268761,0.9956887260185385,1.0,590,0.9463476070528968,0.6413876976873619,0.9978260869565218,0.9631728045325779,0.0,139,1.56875681289701
-3.0596156344255907,-0.070056743853622,0.2073658927141713,0.527038498994941,0.07265520706772798,0.9885586716896888,0.9893616888171675,0.9755671902268761,0.9948264712222462,1.0,572,0.944080604534005,0.639739651698097,0.9971014492753624,0.9599352488870903,0.0,130,1.5686768614054607
-2.526588962399171,0.9236126636548955,0.2305844675740592,0.443077580731583,0.07265520706772798,0.9873726803404492,0.9882193484432311,0.9888307155322862,0.9747790472084501,1.0,451,0.9438287153652393,0.6395570111226766,0.9971014492753624,0.9595305544314043,0.0,129,1.5686354383418044
-3.0596156344255907,0.5221459578606138,0.2305844675740592,0.527038498994941,0.06899095394182937,0.9886284358867029,0.989427521395733,0.97521815008726,0.9954731623194654,1.0,571,0.9460957178841309,0.641202606204176,0.9971014492753624,0.9631728045325779,0.0,138,1.568634128901744
-3.0596156344255907,-0.070056743853622,0.2305844675740592,0.47814795419915657,0.06899095394182937,0.9877912655225338,0.9886420267044679,0.9771378708551484,0.9905151972407846,1.0,563,0.9460957178841309,0.641202606204176,0.9971014492753624,0.9631728045325779,0.0,138,1.5685193706217002
-3.0596156344255907,0.5221459578606138,0.2073658927141713,0.527038498994941,0.06292294085025782,0.9888377284777452,0.9896234243215115,0.974869109947644,0.9965509808148307,1.0,588,0.9498740554156171,0.6439545531242179,0.9971014492753624,0.9692432213678672,0.0,153,1.568505787752248
-3.0596156344255907,0.2036190182156168,0.1585268214571657,0.527038498994941,0.06292294085025782,0.9888377284777452,0.9896234243215115,0.974869109947644,0.9965509808148307,1.0,598,0.9481108312342569,0.6426705060297508,0.9978260869565218,0.9660056657223796,0.0,146,1.5683662593582197
-3.0596156344255907,0.9236126636548955,0.1585268214571657,0.443077580731583,0.06292294085025782,0.9868145667643365,0.9877054647187705,0.9858638743455498,0.9767191205001078,1.0,483,0.9483627204030227,0.6428571428571429,0.9992753623188406,0.9656009712666936,0.0,147,1.5683040864765725
-3.0596156344255907,-0.070056743853622,0.1585268214571657,0.527038498994941,0.06899095394182937,0.9885586716896888,0.9893628530930317,0.975043630017452,0.9954731623194654,1.0,588,0.945088161209068,0.6404729490611628,0.9978260869565218,0.9611493322541481,0.0,134,1.5682444247464187
-3.0596156344255907,0.9236126636548955,0.1585268214571657,0.443077580731583,0.0658296225592494,0.9868843309613506,0.9877692255239889,0.9863874345549738,0.9762879931019617,1.0,482,0.947103274559194,0.6419408145071862,0.9992753623188406,0.9635774989882638,0.0,142,1.5682281047147746
-3.0596156344255907,0.2036190182156168,0.2305844675740592,0.47814795419915657,0.0658296225592494,0.9877912655225338,0.9886433075134627,0.9766143106457242,0.9911618883380039,1.0,569,0.9488664987405542,0.6432195505180327,0.9971014492753624,0.9676244435451234,0.0,149,1.5682264856633124
-3.0596156344255907,-0.070056743853622,0.1841473178542834,0.47814795419915657,0.06292294085025782,0.987930793916562,0.9887735185921152,0.9766143106457242,0.99159301573615,1.0,589,0.9498740554156171,0.6439558660562629,0.9978260869565218,0.9688385269121813,0.0,153,1.5681129994850147
-3.0596156344255907,-0.070056743853622,0.2305844675740592,0.527038498994941,0.07265520706772798,0.9882796149016325,0.9891030137749297,0.974869109947644,0.9948264712222462,1.0,570,0.944080604534005,0.639739651698097,0.9971014492753624,0.9599352488870903,0.0,130,1.5680947431760697
-3.0596156344255907,-0.070056743853622,0.2073658927141713,0.47814795419915657,0.0658296225592494,0.9877912655225338,0.9886433075134627,0.9766143106457242,0.9911618883380039,1.0,579,0.9486146095717884,0.6430359314063021,0.9971014492753624,0.9672197490894374,0.0,148,1.5680869572692842
-3.0596156344255907,0.9236126636548955,0.1841473178542834,0.443077580731583,0.0658296225592494,0.9867448025673224,0.9876396329790812,0.9860383944153578,0.9762879931019617,1.0,482,0.9483627204030227,0.6428539718536072,0.9978260869565218,0.9664103601780656,0.0,147,1.568062657811765
