threshold,objective,flips,train_n,train_acc,train_macro_f1,train_good_recall,train_medium_recall,train_bad_recall,train_good_precision,train_medium_precision,train_bad_precision,train_support_good,train_support_medium,train_support_bad,test_n,test_acc,test_macro_f1,test_good_recall,test_medium_recall,test_bad_recall,test_good_precision,test_medium_precision,test_bad_precision,test_support_good,test_support_medium,test_support_bad,all_n,all_acc,all_macro_f1,all_good_recall,all_medium_recall,all_bad_recall,all_good_precision,all_medium_precision,all_bad_precision,all_support_good,all_support_medium,all_support_bad,all_confusion_3x3,test_confusion_3x3
0.03784959593435119,1.2515458131541877,66,14334,0.9651876656899679,0.9675164737508765,0.9520069808027923,0.951929295106704,0.9997477931904162,0.961402890377159,0.9413771050948625,0.998740236835475,5730,4639,3965,3970,0.9085642317380352,0.6145207281225299,0.994927536231884,0.9040874140024282,0.0,0.853325046612803,0.9466101694915254,0.0,1380,2471,119,18304,0.9529064685314685,0.9574497872350259,0.960337552742616,0.9353023909985936,0.970617042115573,0.9375257448853495,0.9431286342362786,0.9984886649874055,7110,7110,4084,"[[6828, 281, 1], [455, 6650, 5], [0, 120, 3964]]","[[1373, 7, 0], [236, 2234, 1], [0, 119, 0]]"
0.04601569183155599,1.2511650074719833,94,14334,0.9649783730989256,0.9673196674137307,0.9520069808027923,0.9512826040094848,0.9997477931904162,0.9608948388233222,0.941339590443686,0.998740236835475,5730,4639,3965,3970,0.9143576826196473,0.6185935682921297,0.994927536231884,0.9133953864832052,0.0,0.8656998738965952,0.9471254720939991,0.0,1380,2471,119,18304,0.9539991258741258,0.9583885649354004,0.960337552742616,0.9381153305203939,0.970617042115573,0.9401073936389922,0.9432894922924622,0.9984886649874055,7110,7110,4084,"[[6828, 281, 1], [435, 6670, 5], [0, 120, 3964]]","[[1373, 7, 0], [213, 2257, 1], [0, 119, 0]]"
0.21514357674567414,1.2510380719273568,270,14334,0.9649086089019115,0.9672540589568485,0.9520069808027923,0.9510670403104118,0.9997477931904162,0.9607256076083128,0.9413270748879881,0.998740236835475,5730,4639,3965,3970,0.9468513853904282,0.6418599645798416,0.994927536231884,0.9656009712666936,0.0,0.942347288949897,0.9498407643312102,0.0,1380,2471,119,18304,0.9609921328671329,0.964392993088029,0.960337552742616,0.9561181434599156,0.970617042115573,0.9569726699369306,0.9442978191415474,0.9984886649874055,7110,7110,4084,"[[6828, 281, 1], [307, 6798, 5], [0, 120, 3964]]","[[1373, 7, 0], [84, 2386, 1], [0, 119, 0]]"
0.054359786496932336,1.2509111362237941,115,14334,0.9648388447048974,0.9671884473212394,0.9520069808027923,0.9508514766113386,0.9997477931904162,0.9605564359922522,0.9413145539906104,0.998740236835475,5730,4639,3965,3970,0.918639798488665,0.621617429001342,0.994927536231884,0.9202751922298664,0.0,0.8750796685787126,0.9475,0.0,1380,2471,119,18304,0.9548186188811189,0.9590925306453667,0.960337552742616,0.940225035161744,0.970617042115573,0.9420529801324503,0.9434095399379058,0.9984886649874055,7110,7110,4084,"[[6828, 281, 1], [420, 6685, 5], [0, 120, 3964]]","[[1373, 7, 0], [196, 2274, 1], [0, 119, 0]]"
0.20687388151797698,1.2509111362237941,264,14334,0.9648388447048974,0.9671884473212394,0.9520069808027923,0.9508514766113386,0.9997477931904162,0.9605564359922522,0.9413145539906104,0.998740236835475,5730,4639,3965,3970,0.9465994962216625,0.6416765377675818,0.994927536231884,0.9651962768110077,0.0,0.9417009602194787,0.9498207885304659,0.0,1380,2471,119,18304,0.9608828671328671,0.9642992153001005,0.960337552742616,0.9558368495077356,0.970617042115573,0.9567044976881043,0.9442823398638321,0.9984886649874055,7110,7110,4084,"[[6828, 281, 1], [309, 6796, 5], [0, 120, 3964]]","[[1373, 7, 0], [85, 2385, 1], [0, 119, 0]]"
0.1165287521343249,1.2507842003611005,252,14334,0.9647690805078833,0.9671228325030166,0.9520069808027923,0.9506359129122656,0.9997477931904162,0.960387323943662,0.9413020277481323,0.998740236835475,5730,4639,3965,3970,0.9458438287153652,0.6411265694421793,0.994927536231884,0.9639821934439499,0.0,0.9397672826830937,0.9497607655502392,0.0,1380,2471,119,18304,0.9606643356643356,0.9641116564549135,0.960337552742616,0.9552742616033755,0.970617042115573,0.9561686038369976,0.9442513554844988,0.9984886649874055,7110,7110,4084,"[[6828, 281, 1], [313, 6792, 5], [0, 120, 3964]]","[[1373, 7, 0], [88, 2382, 1], [0, 119, 0]]"
0.0617137325122925,1.2507842003611005,150,14334,0.9647690805078833,0.9671228325030166,0.9520069808027923,0.9506359129122656,0.9997477931904162,0.960387323943662,0.9413020277481323,0.998740236835475,5730,4639,3965,3970,0.9261964735516373,0.6269831367249453,0.994927536231884,0.9324160259004451,0.0,0.8921377517868746,0.9481481481481482,0.0,1380,2471,119,18304,0.956402972027972,0.9604532640961523,0.960337552742616,0.9443037974683545,0.970617042115573,0.9458373735974511,0.9436401967673929,0.9984886649874055,7110,7110,4084,"[[6828, 281, 1], [391, 6714, 5], [0, 120, 3964]]","[[1373, 7, 0], [166, 2304, 1], [0, 119, 0]]"
0.06571163515707956,1.2507842003611005,161,14334,0.9647690805078833,0.9671228325030166,0.9520069808027923,0.9506359129122656,0.9997477931904162,0.960387323943662,0.9413020277481323,0.998740236835475,5730,4639,3965,3970,0.9279596977329975,0.6282407656185162,0.994927536231884,0.9352488870902469,0.0,0.8962140992167101,0.948297086581863,0.0,1380,2471,119,18304,0.9567854020979021,0.9607816672434905,0.960337552742616,0.9452883263009846,0.970617042115573,0.9467554076539102,0.9436955911260881,0.9984886649874055,7110,7110,4084,"[[6828, 281, 1], [384, 6721, 5], [0, 120, 3964]]","[[1373, 7, 0], [159, 2311, 1], [0, 119, 0]]"
0.167940663390008,1.250657264339082,260,14334,0.9646993163108692,0.967057214498292,0.9520069808027923,0.9504203492131925,0.9997477931904162,0.9602182714310861,0.9412894961571306,0.998740236835475,5730,4639,3965,3970,0.9465994962216625,0.6416765377675818,0.994927536231884,0.9651962768110077,0.0,0.9417009602194787,0.9498207885304659,0.0,1380,2471,119,18304,0.9607736013986014,0.9642054364260755,0.960337552742616,0.9555555555555556,0.970617042115573,0.9564364756968763,0.944266851980542,0.9984886649874055,7110,7110,4084,"[[6828, 281, 1], [311, 6794, 5], [0, 120, 3964]]","[[1373, 7, 0], [85, 2385, 1], [0, 119, 0]]"
0.07388717936585752,1.250657264339082,188,14334,0.9646993163108692,0.967057214498292,0.9520069808027923,0.9504203492131925,0.9997477931904162,0.9602182714310861,0.9412894961571306,0.998740236835475,5730,4639,3965,3970,0.9329974811083124,0.6318462110733895,0.994927536231884,0.943342776203966,0.0,0.908068783068783,0.9487179487179487,0.0,1380,2471,119,18304,0.9578234265734266,0.9616729559364364,0.960337552742616,0.9479606188466948,0.970617042115573,0.9492562213262894,0.943845399803949,0.9984886649874055,7110,7110,4084,"[[6828, 281, 1], [365, 6740, 5], [0, 120, 3964]]","[[1373, 7, 0], [139, 2331, 1], [0, 119, 0]]"
0.10471888838932612,1.250530328157544,244,14334,0.9646295521138551,0.9669915933031771,0.9520069808027923,0.9502047855141195,0.9997477931904162,0.9600492784230905,0.941276959214179,0.998740236835475,5730,4639,3965,3970,0.9448362720403023,0.6403940028201935,0.994927536231884,0.962363415621206,0.0,0.9372013651877134,0.9496805111821086,0.0,1380,2471,119,18304,0.9603365384615384,0.9638303098482033,0.960337552742616,0.9544303797468354,0.970617042115573,0.9553658877850847,0.9442048142479477,0.9984886649874055,7110,7110,4084,"[[6828, 281, 1], [319, 6786, 5], [0, 120, 3964]]","[[1373, 7, 0], [92, 2378, 1], [0, 119, 0]]"
0.2196848068643046,1.250530328157544,274,14334,0.9646295521138551,0.9669915933031771,0.9520069808027923,0.9502047855141195,0.9997477931904162,0.9600492784230905,0.941276959214179,0.998740236835475,5730,4639,3965,3970,0.9468513853904282,0.6418599645798416,0.994927536231884,0.9656009712666936,0.0,0.942347288949897,0.9498407643312102,0.0,1380,2471,119,18304,0.9607736013986014,0.9642054364260755,0.960337552742616,0.9555555555555556,0.970617042115573,0.9564364756968763,0.944266851980542,0.9984886649874055,7110,7110,4084,"[[6828, 281, 1], [311, 6794, 5], [0, 120, 3964]]","[[1373, 7, 0], [84, 2386, 1], [0, 119, 0]]"
0.0856788540512644,1.2504033918162918,215,14334,0.964559787916841,0.9669259689137831,0.9520069808027923,0.9499892218150463,0.9997477931904162,0.9598803448882632,0.941264416915848,0.998740236835475,5730,4639,3965,3970,0.9387909319899245,0.6360156417989828,0.994927536231884,0.952650748684743,0.0,0.9220953660174613,0.9491935483870968,0.0,1380,2471,119,18304,0.9589707167832168,0.9626579183695053,0.960337552742616,0.950914205344585,0.970617042115573,0.9520356943669828,0.944010053057805,0.9984886649874055,7110,7110,4084,"[[6828, 281, 1], [344, 6761, 5], [0, 120, 3964]]","[[1373, 7, 0], [116, 2354, 1], [0, 119, 0]]"
0.23456541591073102,1.2498956448502538,281,14334,0.9642807311287848,0.9666634393356107,0.9520069808027923,0.949126967018754,0.9997477931904162,0.959205204853174,0.9412141941000427,0.998740236835475,5730,4639,3965,3970,0.9468513853904282,0.6418580845416909,0.9942028985507246,0.9660056657223796,0.0,0.9429553264604811,0.9494828957836118,0.0,1380,2471,119,18304,0.9605004370629371,0.9639713754666811,0.960196905766526,0.9549929676511955,0.970617042115573,0.9558947073648838,0.9441045606229144,0.9984886649874055,7110,7110,4084,"[[6827, 282, 1], [315, 6790, 5], [0, 120, 3964]]","[[1372, 8, 0], [83, 2387, 1], [0, 119, 0]]"
0.2481811239847599,1.2495148329391954,291,14334,0.9640714385377425,0.9664665084213864,0.9520069808027923,0.9484802759215348,0.9997477931904162,0.9586994727592267,0.9411764705882353,0.998740236835475,5730,4639,3965,3970,0.9465994962216625,0.6416726655854931,0.9934782608695653,0.9660056657223796,0.0,0.9429160935350757,0.9491053677932405,0.0,1380,2471,119,18304,0.9602819055944056,0.9637842033293077,0.960056258790436,0.9545710267229255,0.970617042115573,0.9554871220604704,0.9439499304589708,0.9984886649874055,7110,7110,4084,"[[6826, 283, 1], [318, 6787, 5], [0, 120, 3964]]","[[1371, 9, 0], [83, 2387, 1], [0, 119, 0]]"
0.23957685964133485,1.2493878953132274,286,14334,0.9640016743407284,0.9664008583376723,0.9520069808027923,0.9482647122224618,0.9997477931904162,0.9585310138815674,0.9411638853230637,0.998740236835475,5730,4639,3965,3970,0.9465994962216625,0.6416726655854931,0.9934782608695653,0.9660056657223796,0.0,0.9429160935350757,0.9491053677932405,0.0,1380,2471,119,18304,0.9602272727272727,0.9637373121306728,0.960056258790436,0.9544303797468354,0.970617042115573,0.9553533939818054,0.9439421338155516,0.9984886649874055,7110,7110,4084,"[[6826, 283, 1], [319, 6786, 5], [0, 120, 3964]]","[[1371, 9, 0], [83, 2387, 1], [0, 119, 0]]"
0.2538420005403371,1.2491340195767,296,14334,0.9638621459467002,0.9662695484784161,0.9520069808027923,0.9478335848243156,0.9997477931904162,0.9581942736694186,0.941138698630137,0.998740236835475,5730,4639,3965,3970,0.9465994962216625,0.6416726655854931,0.9934782608695653,0.9660056657223796,0.0,0.9429160935350757,0.9491053677932405,0.0,1380,2471,119,18304,0.960118006993007,0.9636435288788311,0.960056258790436,0.9541490857946554,0.970617042115573,0.9550860500909473,0.9439265340197579,0.9984886649874055,7110,7110,4084,"[[6826, 283, 1], [321, 6784, 5], [0, 120, 3964]]","[[1371, 9, 0], [83, 2387, 1], [0, 119, 0]]"
0.26151981692590703,1.2488801431927516,301,14334,0.963722617552672,0.9661382256707468,0.9520069808027923,0.9474024574261695,0.9997477931904162,0.9578577699736611,0.9411134903640257,0.998740236835475,5730,4639,3965,3970,0.9463476070528968,0.641487186605164,0.9927536231884058,0.9660056657223796,0.0,0.94287680660702,0.9487281399046105,0.0,1380,2471,119,18304,0.9599541083916084,0.9635032463560466,0.959915611814346,0.9538677918424754,0.970617042115573,0.9548125349748181,0.9437795713888116,0.9984886649874055,7110,7110,4084,"[[6825, 284, 1], [323, 6782, 5], [0, 120, 3964]]","[[1370, 10, 0], [83, 2387, 1], [0, 119, 0]]"
0.2660007654302706,1.2484993273995053,306,14334,0.9635133249616297,0.9659412171127603,0.9520069808027923,0.9467557663289502,0.9997477931904162,0.9573534573534573,0.9410756374544675,0.998740236835475,5730,4639,3965,3970,0.9463476070528968,0.641487186605164,0.9927536231884058,0.9660056657223796,0.0,0.94287680660702,0.9487281399046105,0.0,1380,2471,119,18304,0.9597902097902098,0.9633625684995067,0.959915611814346,0.9534458509142053,0.970617042115573,0.9544119703537967,0.9437560907698733,0.9984886649874055,7110,7110,4084,"[[6825, 284, 1], [326, 6779, 5], [0, 120, 3964]]","[[1370, 10, 0], [83, 2387, 1], [0, 119, 0]]"
0.27954195397251286,1.2479915707279827,313,14334,0.9632342681735733,0.9656784934248993,0.9520069808027923,0.9458935115326579,0.9997477931904162,0.9566818660119256,0.941025091143041,0.998740236835475,5730,4639,3965,3970,0.9460957178841309,0.6412995602512446,0.991304347826087,0.9664103601780656,0.0,0.9434482758620689,0.9479952362048432,0.0,1380,2471,119,18304,0.9595170454545454,0.9631288944862995,0.9596343178621659,0.9530239099859353,0.970617042115573,0.9539988814317674,0.9434697855750487,0.9984886649874055,7110,7110,4084,"[[6823, 286, 1], [329, 6776, 5], [0, 120, 3964]]","[[1368, 12, 0], [82, 2388, 1], [0, 119, 0]]"
0.3099735109245954,1.247918591701427,323,14334,0.9631645039765593,0.9656141968340677,0.9518324607329843,0.9458935115326579,0.9997477931904162,0.9566742676723382,0.9408233276157805,0.998740236835475,5730,4639,3965,3970,0.9458438287153652,0.641113896612819,0.9905797101449275,0.9664103601780656,0.0,0.9434092477570738,0.9476190476190476,0.0,1380,2471,119,18304,0.9594077797202797,0.9630358996747921,0.9593530239099859,0.9530239099859353,0.970617042115573,0.953986013986014,0.9432071269487751,0.9984886649874055,7110,7110,4084,"[[6821, 288, 1], [329, 6776, 5], [0, 120, 3964]]","[[1367, 13, 0], [82, 2388, 1], [0, 119, 0]]"
0.28856775937309426,1.2478646311515649,318,14334,0.9631645039765593,0.9656128043321859,0.9520069808027923,0.9456779478335848,0.9997477931904162,0.9565141153778713,0.941012441012441,0.998740236835475,5730,4639,3965,3970,0.9460957178841309,0.6412995602512446,0.991304347826087,0.9664103601780656,0.0,0.9434482758620689,0.9479952362048432,0.0,1380,2471,119,18304,0.9594624125874126,0.9630820010137032,0.9596343178621659,0.9528832630098453,0.970617042115573,0.9538655109744163,0.9434619133825373,0.9984886649874055,7110,7110,4084,"[[6823, 286, 1], [330, 6775, 5], [0, 120, 3964]]","[[1368, 12, 0], [82, 2388, 1], [0, 119, 0]]"
0.3566785876180632,1.2475377725812464,335,14334,0.962955211385517,0.9654171217373989,0.9518324607329843,0.9452468204354386,0.9997477931904162,0.9561711079943899,0.9407852392190517,0.998740236835475,5730,4639,3965,3970,0.944080604534005,0.6398125515266347,0.9855072463768116,0.9664103601780656,0.0,0.9431345353675451,0.9449940641076375,0.0,1380,2471,119,18304,0.958861451048951,0.9625697346059866,0.9583684950773559,0.9526019690576653,0.970617042115573,0.9535404422054297,0.9422648859209795,0.9984886649874055,7110,7110,4084,"[[6814, 295, 1], [332, 6773, 5], [0, 120, 3964]]","[[1360, 20, 0], [82, 2388, 1], [0, 119, 0]]"
0.375735910227677,1.2475377725812464,341,14334,0.962955211385517,0.9654171217373989,0.9518324607329843,0.9452468204354386,0.9997477931904162,0.9561711079943899,0.9407852392190517,0.998740236835475,5730,4639,3965,3970,0.9435768261964735,0.6394456452792073,0.9855072463768116,0.9656009712666936,0.0,0.9418282548476454,0.9449504950495049,0.0,1380,2471,119,18304,0.9587521853146853,0.9624759512210561,0.9583684950773559,0.9523206751054852,0.970617042115573,0.9532736429770565,0.9422488171444475,0.9984886649874055,7110,7110,4084,"[[6814, 295, 1], [334, 6771, 5], [0, 120, 3964]]","[[1360, 20, 0], [84, 2386, 1], [0, 119, 0]]"
0.3880669768029067,1.2472109135859306,347,14334,0.9627459187944747,0.9652214306426555,0.9516579406631762,0.9448156930372925,0.9997477931904162,0.9558282208588957,0.9405579399141631,0.998740236835475,5730,4639,3965,3970,0.9433249370277078,0.6392622711206782,0.9855072463768116,0.9651962768110077,0.0,0.9411764705882353,0.9449286846275753,0.0,1380,2471,119,18304,0.9585336538461539,0.9622887762041611,0.9582278481012658,0.9518987341772152,0.970617042115573,0.9528671328671329,0.9420935412026726,0.9984886649874055,7110,7110,4084,"[[6813, 296, 1], [337, 6768, 5], [0, 120, 3964]]","[[1360, 20, 0], [85, 2385, 1], [0, 119, 0]]"
0.3911181531291582,1.2467031512785867,351,14334,0.9624668620064183,0.9649585942383657,0.9516579406631762,0.9439534382410002,0.9997477931904162,0.95515852163251,0.9405068728522337,0.998740236835475,5730,4639,3965,3970,0.9433249370277078,0.6392622711206782,0.9855072463768116,0.9651962768110077,0.0,0.9411764705882353,0.9449286846275753,0.0,1380,2471,119,18304,0.9583151223776224,0.962101203454437,0.9582278481012658,0.9513361462728551,0.970617042115573,0.9523343584008946,0.9420612813370474,0.9984886649874055,7110,7110,4084,"[[6813, 296, 1], [341, 6764, 5], [0, 120, 3964]]","[[1360, 20, 0], [85, 2385, 1], [0, 119, 0]]"
0.40539697891055426,1.2465762102891589,359,14334,0.9623970978094042,0.9648928768854609,0.9516579406631762,0.9437378745419271,0.9997477931904162,0.9549912434325745,0.9404940923737917,0.998740236835475,5730,4639,3965,3970,0.9425692695214106,0.638712463279295,0.9855072463768116,0.9639821934439499,0.0,0.9392265193370166,0.9448631495438318,0.0,1380,2471,119,18304,0.9580965909090909,0.9619136257650099,0.9582278481012658,0.9507735583684951,0.970617042115573,0.951802179379715,0.9420289855072463,0.9984886649874055,7110,7110,4084,"[[6813, 296, 1], [345, 6760, 5], [0, 120, 3964]]","[[1360, 20, 0], [88, 2382, 1], [0, 119, 0]]"
0.41447623621121815,1.246068444675219,365,14334,0.9621180410213478,0.9646299743492524,0.9516579406631762,0.9428756197456348,0.9997477931904162,0.9543227161358068,0.9404429155020426,0.998740236835475,5730,4639,3965,3970,0.9420654911838791,0.6383461858935774,0.9855072463768116,0.9631728045325779,0.0,0.9379310344827586,0.944819372766971,0.0,1380,2471,119,18304,0.9577687937062938,0.9616322497756856,0.9582278481012658,0.949929676511955,0.970617042115573,0.9510050251256281,0.9419804741980474,0.9984886649874055,7110,7110,4084,"[[6813, 296, 1], [351, 6754, 5], [0, 120, 3964]]","[[1360, 20, 0], [90, 2380, 1], [0, 119, 0]]"
0.4205331097765073,1.2454337339166117,370,14334,0.9617692200362774,0.9643012713553393,0.9516579406631762,0.9417978012502695,0.9997477931904162,0.9534883720930233,0.9403788204907447,0.998740236835475,5730,4639,3965,3970,0.9420654911838791,0.6383461858935774,0.9855072463768116,0.9631728045325779,0.0,0.9379310344827586,0.944819372766971,0.0,1380,2471,119,18304,0.9574956293706294,0.9613977609275288,0.9582278481012658,0.9492264416315049,0.970617042115573,0.9503417491979356,0.9419399860432659,0.9984886649874055,7110,7110,4084,"[[6813, 296, 1], [356, 6749, 5], [0, 120, 3964]]","[[1360, 20, 0], [90, 2380, 1], [0, 119, 0]]"
0.42329034671242355,1.2449259623015172,374,14334,0.961490163248221,0.9640382487960365,0.9516579406631762,0.9409355464539771,0.9997477931904162,0.9528219465315394,0.9403274450667816,0.998740236835475,5730,4639,3965,3970,0.9420654911838791,0.6383461858935774,0.9855072463768116,0.9631728045325779,0.0,0.9379310344827586,0.944819372766971,0.0,1380,2471,119,18304,0.9572770979020979,0.9612101639274178,0.9582278481012658,0.9486638537271449,0.970617042115573,0.9498117942283564,0.9419075548107806,0.9984886649874055,7110,7110,4084,"[[6813, 296, 1], [360, 6745, 5], [0, 120, 3964]]","[[1360, 20, 0], [90, 2380, 1], [0, 119, 0]]"
0.42602310816611444,1.244291244001826,379,14334,0.9611413422631505,0.9637093949804503,0.9516579406631762,0.9398577279586118,0.9997477931904162,0.9519902234636871,0.9402631011429804,0.998740236835475,5730,4639,3965,3970,0.9420654911838791,0.6383461858935774,0.9855072463768116,0.9631728045325779,0.0,0.9379310344827586,0.944819372766971,0.0,1380,2471,119,18304,0.9570039335664335,0.9609756601303377,0.9582278481012658,0.9479606188466948,0.970617042115573,0.949150181108944,0.9418669647847959,0.9984886649874055,7110,7110,4084,"[[6813, 296, 1], [365, 6740, 5], [0, 120, 3964]]","[[1360, 20, 0], [90, 2380, 1], [0, 119, 0]]"
0.43269226967209634,1.2440373555006636,384,14334,0.9610018138691223,0.9635778298284978,0.9516579406631762,0.9394266005604656,0.9997477931904162,0.9516579406631762,0.9402373247033441,0.998740236835475,5730,4639,3965,3970,0.9418136020151133,0.6381631252478519,0.9855072463768116,0.9627681100768919,0.0,0.9372846312887664,0.9447974583002383,0.0,1380,2471,119,18304,0.956840034965035,0.9608349537607834,0.9582278481012658,0.9475386779184247,0.970617042115573,0.9487536554797382,0.9418425835313854,0.9984886649874055,7110,7110,4084,"[[6813, 296, 1], [368, 6737, 5], [0, 120, 3964]]","[[1360, 20, 0], [91, 2379, 1], [0, 119, 0]]"
0.43895666188520455,1.2434026312808153,389,14334,0.9606529928840519,0.9632488576097673,0.9516579406631762,0.9383487820651002,0.9997477931904162,0.9508282476024411,0.9401727861771059,0.998740236835475,5730,4639,3965,3970,0.9418136020151133,0.6381631252478519,0.9855072463768116,0.9627681100768919,0.0,0.9372846312887664,0.9447974583002383,0.0,1380,2471,119,18304,0.9565668706293706,0.9606004362063522,0.9582278481012658,0.9468354430379747,0.970617042115573,0.9480935151683829,0.9418019026301063,0.9984886649874055,7110,7110,4084,"[[6813, 296, 1], [373, 6732, 5], [0, 120, 3964]]","[[1360, 20, 0], [91, 2379, 1], [0, 119, 0]]"
0.4423820703124712,1.2427679028028515,396,14334,0.9603041718989814,0.9629198002287312,0.9516579406631762,0.9372709635697348,0.9997477931904162,0.95,0.9401081081081081,0.998740236835475,5730,4639,3965,3970,0.9413098236775819,0.6377971595426848,0.9855072463768116,0.9619587211655201,0.0,0.9359944941500344,0.9447535771065183,0.0,1380,2471,119,18304,0.9561844405594405,0.9602720967693065,0.9582278481012658,0.9458509142053446,0.970617042115573,0.9471708605588767,0.9417448536619522,0.9984886649874055,7110,7110,4084,"[[6813, 296, 1], [380, 6725, 5], [0, 120, 3964]]","[[1360, 20, 0], [93, 2377, 1], [0, 119, 0]]"
0.44749781575659214,1.2423140863350928,400,14334,0.960025115110925,0.9626580621207784,0.9514834205933682,0.9366242724725157,0.9997477931904162,0.9494949494949495,0.9398658879515466,0.998740236835475,5730,4639,3965,3970,0.9413098236775819,0.6377971595426848,0.9855072463768116,0.9619587211655201,0.0,0.9359944941500344,0.9447535771065183,0.0,1380,2471,119,18304,0.9559659090909091,0.9600848915984889,0.9580872011251758,0.9454289732770745,0.970617042115573,0.9467685892981237,0.9415884577671942,0.9984886649874055,7110,7110,4084,"[[6812, 297, 1], [383, 6722, 5], [0, 120, 3964]]","[[1360, 20, 0], [93, 2377, 1], [0, 119, 0]]"
0.4514027218634686,1.241733321471723,405,14334,0.9596762941258546,0.9623304585362508,0.9513089005235602,0.9357620176762234,0.9997477931904162,0.9488250652741514,0.9396103896103896,0.998740236835475,5730,4639,3965,3970,0.9413098236775819,0.6377971595426848,0.9855072463768116,0.9619587211655201,0.0,0.9359944941500344,0.9447535771065183,0.0,1380,2471,119,18304,0.9556927447552448,0.9598507762668955,0.9579465541490858,0.9448663853727145,0.970617042115573,0.9462350652959155,0.9414237668161435,0.9984886649874055,7110,7110,4084,"[[6811, 298, 1], [387, 6718, 5], [0, 120, 3964]]","[[1360, 20, 0], [93, 2377, 1], [0, 119, 0]]"
0.4539467611031014,1.2412255310757403,409,14334,0.9593972373377982,0.9620670603591881,0.9513089005235602,0.934899762879931,0.9997477931904162,0.9481648982431727,0.9395580589254766,0.998740236835475,5730,4639,3965,3970,0.9413098236775819,0.6377971595426848,0.9855072463768116,0.9619587211655201,0.0,0.9359944941500344,0.9447535771065183,0.0,1380,2471,119,18304,0.9554742132867133,0.9596631381674329,0.9579465541490858,0.9443037974683545,0.970617042115573,0.9457095251319078,0.9413909141895681,0.9984886649874055,7110,7110,4084,"[[6811, 298, 1], [391, 6714, 5], [0, 120, 3964]]","[[1360, 20, 0], [93, 2377, 1], [0, 119, 0]]"
0.45789596033282043,1.2406447612213367,415,14334,0.9590484163527278,0.9617393569539878,0.9511343804537522,0.9340375080836387,0.9997477931904162,0.9474965229485396,0.9393019726858877,0.998740236835475,5730,4639,3965,3970,0.9410579345088161,0.637614254280369,0.9855072463768116,0.961554026709834,0.0,0.9353507565337001,0.9447316103379721,0.0,1380,2471,119,18304,0.955146416083916,0.9593821030402525,0.9578059071729957,0.9436005625879044,0.970617042115573,0.9450457951706911,0.9412177328843996,0.9984886649874055,7110,7110,4084,"[[6810, 299, 1], [396, 6709, 5], [0, 120, 3964]]","[[1360, 20, 0], [94, 2376, 1], [0, 119, 0]]"
0.4614943156282733,1.2401369654164496,419,14334,0.9587693595646715,0.9614758505988282,0.9511343804537522,0.9331752532873464,0.9997477931904162,0.9468380820013899,0.9392492948578868,0.998740236835475,5730,4639,3965,3970,0.9410579345088161,0.637614254280369,0.9855072463768116,0.961554026709834,0.0,0.9353507565337001,0.9447316103379721,0.0,1380,2471,119,18304,0.9549278846153846,0.959194452643271,0.9578059071729957,0.9430379746835443,0.970617042115573,0.9445214979195562,0.9411847276810781,0.9984886649874055,7110,7110,4084,"[[6810, 299, 1], [400, 6705, 5], [0, 120, 3964]]","[[1360, 20, 0], [94, 2376, 1], [0, 119, 0]]"
0.4654065500394076,1.2395561905303998,424,14334,0.958420538579601,0.9611480465607046,0.9509598603839442,0.9323129984910541,0.9997477931904162,0.9461712102795624,0.9389926183239253,0.998740236835475,5730,4639,3965,3970,0.9410579345088161,0.637614254280369,0.9855072463768116,0.961554026709834,0.0,0.9353507565337001,0.9447316103379721,0.0,1380,2471,119,18304,0.9546547202797203,0.9589603194969927,0.9576652601969058,0.9424753867791843,0.970617042115573,0.943990018023014,0.9410195197303749,0.9984886649874055,7110,7110,4084,"[[6809, 300, 1], [404, 6701, 5], [0, 120, 3964]]","[[1360, 20, 0], [94, 2376, 1], [0, 119, 0]]"
0.4667814465148331,1.239156338135893,428,14334,0.9581414817915446,0.9608877714224299,0.9506108202443281,0.931881871092908,0.9997477931904162,0.945823927765237,0.9385584020842379,0.998740236835475,5730,4639,3965,3970,0.9410579345088161,0.637614254280369,0.9855072463768116,0.961554026709834,0.0,0.9353507565337001,0.9447316103379721,0.0,1380,2471,119,18304,0.9544361888111889,0.9587735369551572,0.9573839662447258,0.9421940928270042,0.970617042115573,0.9437127408845141,0.9407386603005196,0.9984886649874055,7110,7110,4084,"[[6807, 302, 1], [406, 6699, 5], [0, 120, 3964]]","[[1360, 20, 0], [94, 2376, 1], [0, 119, 0]]"
0.46983774567111014,1.2385755600190147,433,14334,0.9577926608064741,0.9605599027677307,0.9504363001745201,0.9310196162966157,0.9997477931904162,0.9451579312738633,0.9383011079730611,0.998740236835475,5730,4639,3965,3970,0.9410579345088161,0.637614254280369,0.9855072463768116,0.961554026709834,0.0,0.9353507565337001,0.9447316103379721,0.0,1380,2471,119,18304,0.9541630244755245,0.9585393997500015,0.9572433192686357,0.9416315049226441,0.970617042115573,0.9431818181818182,0.9405731947176174,0.9984886649874055,7110,7110,4084,"[[6806, 303, 1], [410, 6695, 5], [0, 120, 3964]]","[[1360, 20, 0], [94, 2376, 1], [0, 119, 0]]"
0.4743710386885172,1.2381757067985357,437,14334,0.9575136040184178,0.9602996111100118,0.9500872600349041,0.9305884888984695,0.9997477931904162,0.944810829573065,0.9378666087334347,0.998740236835475,5730,4639,3965,3970,0.9410579345088161,0.637614254280369,0.9855072463768116,0.961554026709834,0.0,0.9353507565337001,0.9447316103379721,0.0,1380,2471,119,18304,0.953944493006993,0.9583526169470026,0.9569620253164557,0.9413502109704641,0.970617042115573,0.9429046563192904,0.9402922169148638,0.9984886649874055,7110,7110,4084,"[[6804, 305, 1], [412, 6693, 5], [0, 120, 3964]]","[[1360, 20, 0], [94, 2376, 1], [0, 119, 0]]"
0.4817596555345077,1.2375949254374137,442,14334,0.9571647830333473,0.9599716775704453,0.949912739965096,0.9297262341021771,0.9997477931904162,0.9441457068516912,0.9376086956521739,0.998740236835475,5730,4639,3965,3970,0.9410579345088161,0.637614254280369,0.9855072463768116,0.961554026709834,0.0,0.9353507565337001,0.9447316103379721,0.0,1380,2471,119,18304,0.9536713286713286,0.9581184755879333,0.9568213783403657,0.9407876230661041,0.970617042115573,0.9423742900678764,0.9401264933239635,0.9984886649874055,7110,7110,4084,"[[6803, 306, 1], [416, 6689, 5], [0, 120, 3964]]","[[1360, 20, 0], [94, 2376, 1], [0, 119, 0]]"
0.4822938113644092,1.2371410940817975,446,14334,0.9568857262452909,0.959709641705345,0.949738219895288,0.929079543004958,0.9997477931904162,0.9436448760187273,0.9373640713353631,0.998740236835475,5730,4639,3965,3970,0.9410579345088161,0.637614254280369,0.9855072463768116,0.961554026709834,0.0,0.9353507565337001,0.9447316103379721,0.0,1380,2471,119,18304,0.9534527972027972,0.9579312486094529,0.9566807313642757,0.940365682137834,0.970617042115573,0.9419747957346628,0.9399690707155912,0.9984886649874055,7110,7110,4084,"[[6802, 307, 1], [419, 6686, 5], [0, 120, 3964]]","[[1360, 20, 0], [94, 2376, 1], [0, 119, 0]]"
0.4955119576729549,1.236560308531978,452,14334,0.9565369052602205,0.9593816243918218,0.94956369982548,0.9282172882086657,0.9997477931904162,0.9429809358752166,0.9371055495103373,0.998740236835475,5730,4639,3965,3970,0.9408060453400504,0.6374314006098247,0.9855072463768116,0.9611493322541481,0.0,0.9347079037800687,0.9447096260938743,0.0,1380,2471,119,18304,0.953125,0.9576501809433514,0.9565400843881856,0.939662447257384,0.970617042115573,0.9413148788927336,0.939794626529751,0.9984886649874055,7110,7110,4084,"[[6801, 308, 1], [424, 6681, 5], [0, 120, 3964]]","[[1360, 20, 0], [95, 2375, 1], [0, 119, 0]]"
0.5037350379347626,1.236160453097607,456,14334,0.9562578484721641,0.9591212884562591,0.9492146596858638,0.9277861608105195,0.9997477931904162,0.9426343154246101,0.9366702937976061,0.998740236835475,5730,4639,3965,3970,0.9408060453400504,0.6374314006098247,0.9855072463768116,0.9611493322541481,0.0,0.9347079037800687,0.9447096260938743,0.0,1380,2471,119,18304,0.9529064685314685,0.9574633972578898,0.9562587904360056,0.9393811533052039,0.970617042115573,0.941038062283737,0.939513293008862,0.9984886649874055,7110,7110,4084,"[[6799, 310, 1], [426, 6679, 5], [0, 120, 3964]]","[[1360, 20, 0], [95, 2375, 1], [0, 119, 0]]"
0.5055616988452152,1.2355796642712058,461,14334,0.9559090274870936,0.9587932056111041,0.9490401396160558,0.9269239060142273,0.9997477931904162,0.9419712454529707,0.936411149825784,0.998740236835475,5730,4639,3965,3970,0.9408060453400504,0.6374314006098247,0.9855072463768116,0.9611493322541481,0.0,0.9347079037800687,0.9447096260938743,0.0,1380,2471,119,18304,0.9526333041958042,0.9572292435211285,0.9561181434599156,0.9388185654008439,0.970617042115573,0.9405091311566132,0.9393470306783,0.9984886649874055,7110,7110,4084,"[[6798, 311, 1], [430, 6675, 5], [0, 120, 3964]]","[[1360, 20, 0], [95, 2375, 1], [0, 119, 0]]"
0.5082688079865197,1.2353257559666961,465,14334,0.9557694990930654,0.9586612443922102,0.9490401396160558,0.926492778616081,0.9997477931904162,0.9416450216450216,0.9363834422657952,0.998740236835475,5730,4639,3965,3970,0.9408060453400504,0.6374314006098247,0.9855072463768116,0.9611493322541481,0.0,0.9347079037800687,0.9447096260938743,0.0,1380,2471,119,18304,0.9525240384615384,0.957135400137379,0.9561181434599156,0.9385372714486638,0.970617042115573,0.9402489626556016,0.939329954954955,0.9984886649874055,7110,7110,4084,"[[6798, 311, 1], [432, 6673, 5], [0, 120, 3964]]","[[1360, 20, 0], [95, 2375, 1], [0, 119, 0]]"
0.5117478423645719,1.2352527819351773,470,14334,0.9556997348960513,0.9585970477021126,0.9488656195462478,0.926492778616081,0.9997477931904162,0.9416349151368202,0.9361794815944239,0.998740236835475,5730,4639,3965,3970,0.9408060453400504,0.6374314006098247,0.9855072463768116,0.9611493322541481,0.0,0.9347079037800687,0.9447096260938743,0.0,1380,2471,119,18304,0.9524694055944056,0.9570889299796205,0.9559774964838256,0.9385372714486638,0.970617042115573,0.9402406971918661,0.9391977480647431,0.9984886649874055,7110,7110,4084,"[[6797, 312, 1], [432, 6673, 5], [0, 120, 3964]]","[[1360, 20, 0], [95, 2375, 1], [0, 119, 0]]"
0.5186933568005246,1.2348339325760993,475,14334,0.9553509139109809,0.9582742987173276,0.9481675392670157,0.926277214917008,0.9997477931904162,0.9414312944030497,0.9353504571179799,0.998740236835475,5730,4639,3965,3970,0.9408060453400504,0.6374314006098247,0.9855072463768116,0.9611493322541481,0.0,0.9347079037800687,0.9447096260938743,0.0,1380,2471,119,18304,0.9521962412587412,0.956856125724492,0.9554149085794655,0.9383966244725739,0.970617042115573,0.9400774979241627,0.9386606640405177,0.9984886649874055,7110,7110,4084,"[[6793, 316, 1], [433, 6672, 5], [0, 120, 3964]]","[[1360, 20, 0], [95, 2375, 1], [0, 119, 0]]"
0.5275486457962775,1.2348339325760993,479,14334,0.9553509139109809,0.9582742987173276,0.9481675392670157,0.926277214917008,0.9997477931904162,0.9414312944030497,0.9353504571179799,0.998740236835475,5730,4639,3965,3970,0.9408060453400504,0.6374314006098247,0.9855072463768116,0.9611493322541481,0.0,0.9347079037800687,0.9447096260938743,0.0,1380,2471,119,18304,0.9521962412587412,0.956856125724492,0.9554149085794655,0.9383966244725739,0.970617042115573,0.9400774979241627,0.9386606640405177,0.9984886649874055,7110,7110,4084,"[[6793, 316, 1], [433, 6672, 5], [0, 120, 3964]]","[[1360, 20, 0], [95, 2375, 1], [0, 119, 0]]"
0.5380249851567368,1.2347609590773083,484,14334,0.9552811497139668,0.9582101126817899,0.9479930191972077,0.926277214917008,0.9997477931904162,0.941421143847487,0.9351468988030468,0.998740236835475,5730,4639,3965,3970,0.9408060453400504,0.6374314006098247,0.9855072463768116,0.9611493322541481,0.0,0.9347079037800687,0.9447096260938743,0.0,1380,2471,119,18304,0.9521416083916084,0.9568096543587741,0.9552742616033755,0.9383966244725739,0.970617042115573,0.9400692041522491,0.9385286256857505,0.9984886649874055,7110,7110,4084,"[[6792, 317, 1], [433, 6672, 5], [0, 120, 3964]]","[[1360, 20, 0], [95, 2375, 1], [0, 119, 0]]"
0.5417177638354238,1.2344690660587463,488,14334,0.9550020929259104,0.9579533880716816,0.9472949389179756,0.926277214917008,0.9997477931904162,0.9413805064169268,0.9343335507719069,0.998740236835475,5730,4639,3965,3970,0.9408060453400504,0.6374314006098247,0.9855072463768116,0.9611493322541481,0.0,0.9347079037800687,0.9447096260938743,0.0,1380,2471,119,18304,0.9519230769230769,0.9566237656849603,0.9547116736990154,0.9383966244725739,0.970617042115573,0.9400360060933389,0.9380008435259384,0.9984886649874055,7110,7110,4084,"[[6788, 321, 1], [433, 6672, 5], [0, 120, 3964]]","[[1360, 20, 0], [95, 2375, 1], [0, 119, 0]]"
0.5485327893084992,1.2342501473150067,493,14334,0.9547928003348681,0.9577608650177304,0.9467713787085514,0.926277214917008,0.9997477931904162,0.9413499913239632,0.9337244676227727,0.998740236835475,5730,4639,3965,3970,0.9408060453400504,0.6374314006098247,0.9855072463768116,0.9611493322541481,0.0,0.9347079037800687,0.9447096260938743,0.0,1380,2471,119,18304,0.9517591783216783,0.9564843457698228,0.9542897327707455,0.9383966244725739,0.970617042115573,0.9400110834026046,0.9376053962900506,0.9984886649874055,7110,7110,4084,"[[6785, 324, 1], [433, 6672, 5], [0, 120, 3964]]","[[1360, 20, 0], [95, 2375, 1], [0, 119, 0]]"
0.5564797844525121,1.2341042019688355,498,14334,0.9546532719408399,0.9576325259748731,0.9464223385689354,0.926277214917008,0.9997477931904162,0.9413296302725221,0.9333188531711555,0.998740236835475,5730,4639,3965,3970,0.9410579345088161,0.6376174326721862,0.986231884057971,0.9611493322541481,0.0,0.9347527472527473,0.9450855551134103,0.0,1380,2471,119,18304,0.9517045454545454,0.9564378718080024,0.9541490857946554,0.9383966244725739,0.970617042115573,0.940002771234585,0.9374736546297597,0.9984886649874055,7110,7110,4084,"[[6784, 325, 1], [433, 6672, 5], [0, 120, 3964]]","[[1361, 19, 0], [95, 2375, 1], [0, 119, 0]]"
0.5620184689258753,1.2337393402829393,503,14334,0.9543044509557695,0.9573117119583571,0.9455497382198953,0.926277214917008,0.9997477931904162,0.9412786657400973,0.9323063571273595,0.998740236835475,5730,4639,3965,3970,0.9410579345088161,0.6376174326721862,0.986231884057971,0.9611493322541481,0.0,0.9347527472527473,0.9450855551134103,0.0,1380,2471,119,18304,0.9514313811188811,0.9562054970115513,0.9534458509142053,0.9383966244725739,0.970617042115573,0.939961175818081,0.93681550126369,0.9984886649874055,7110,7110,4084,"[[6779, 330, 1], [433, 6672, 5], [0, 120, 3964]]","[[1361, 19, 0], [95, 2375, 1], [0, 119, 0]]"
0.5731123837954453,1.2336663682321816,518,14334,0.9542346867587554,0.9572475548834806,0.9453752181500873,0.926277214917008,0.9997477931904162,0.9412684622067767,0.9321041214750543,0.998740236835475,5730,4639,3965,3970,0.9405541561712847,0.637245307798085,0.9847826086956522,0.9611493322541481,0.0,0.9346629986244842,0.9443339960238568,0.0,1380,2471,119,18304,0.9512674825174825,0.9560660680945684,0.9530239099859353,0.9383966244725739,0.970617042115573,0.9399361908725204,0.9364210526315789,0.9984886649874055,7110,7110,4084,"[[6776, 333, 1], [433, 6672, 5], [0, 120, 3964]]","[[1359, 21, 0], [95, 2375, 1], [0, 119, 0]]"
0.5650611982505348,1.2335933962764605,507,14334,0.9541649225617413,0.9571833997093422,0.9452006980802792,0.926277214917008,0.9997477931904162,0.9412582551268682,0.9319019735415311,0.998740236835475,5730,4639,3965,3970,0.9410579345088161,0.6376174326721862,0.986231884057971,0.9611493322541481,0.0,0.9347527472527473,0.9450855551134103,0.0,1380,2471,119,18304,0.9513221153846154,0.9561125447400132,0.9531645569620253,0.9383966244725739,0.970617042115573,0.9399445214979195,0.9365524985962942,0.9984886649874055,7110,7110,4084,"[[6777, 332, 1], [433, 6672, 5], [0, 120, 3964]]","[[1361, 19, 0], [95, 2375, 1], [0, 119, 0]]"
0.5688319794213332,1.233520424415589,513,14334,0.9540951583647272,0.9571192464321984,0.9450261780104712,0.926277214917008,0.9997477931904162,0.9412480444985225,0.9316999132697311,0.998740236835475,5730,4639,3965,3970,0.9408060453400504,0.6374314006098247,0.9855072463768116,0.9611493322541481,0.0,0.9347079037800687,0.9447096260938743,0.0,1380,2471,119,18304,0.9512128496503497,0.9560195911075162,0.9528832630098453,0.9383966244725739,0.970617042115573,0.939927857935627,0.9362896435587987,0.9984886649874055,7110,7110,4084,"[[6775, 334, 1], [433, 6672, 5], [0, 120, 3964]]","[[1360, 20, 0], [95, 2375, 1], [0, 119, 0]]"
0.5771589603231201,1.2334474526493804,523,14334,0.9540253941677131,0.9570550950483061,0.9448516579406632,0.926277214917008,0.9997477931904162,0.9412378303198887,0.9314979406026447,0.998740236835475,5730,4639,3965,3970,0.9405541561712847,0.637245307798085,0.9847826086956522,0.9611493322541481,0.0,0.9346629986244842,0.9443339960238568,0.0,1380,2471,119,18304,0.951103583916084,0.9559266361031189,0.9526019690576653,0.9383966244725739,0.970617042115573,0.9399111851235082,0.936026936026936,0.9984886649874055,7110,7110,4084,"[[6773, 336, 1], [433, 6672, 5], [0, 120, 3964]]","[[1359, 21, 0], [95, 2375, 1], [0, 119, 0]]"
0.5819809023310488,1.2333015094002022,527,14334,0.953885865773685,0.9569267979453066,0.9445026178010472,0.926277214917008,0.9997477931904162,0.9412173913043478,0.9310942578548213,0.998740236835475,5730,4639,3965,3970,0.9405541561712847,0.637245307798085,0.9847826086956522,0.9611493322541481,0.0,0.9346629986244842,0.9443339960238568,0.0,1380,2471,119,18304,0.9509943181818182,0.9558336797158798,0.9523206751054852,0.9383966244725739,0.970617042115573,0.939894503053859,0.9357643758765778,0.9984886649874055,7110,7110,4084,"[[6771, 338, 1], [433, 6672, 5], [0, 120, 3964]]","[[1359, 21, 0], [95, 2375, 1], [0, 119, 0]]"
0.5835653384471068,1.2332285379168586,532,14334,0.9538161015766708,0.9568626522187159,0.944328097731239,0.926277214917008,0.9997477931904162,0.9412071664637328,0.9308925476603119,0.998740236835475,5730,4639,3965,3970,0.9405541561712847,0.637245307798085,0.9847826086956522,0.9611493322541481,0.0,0.9346629986244842,0.9443339960238568,0.0,1380,2471,119,18304,0.9509396853146853,0.9557872010002751,0.9521800281293952,0.9383966244725739,0.970617042115573,0.9398861585450506,0.935633151030711,0.9984886649874055,7110,7110,4084,"[[6770, 339, 1], [433, 6672, 5], [0, 120, 3964]]","[[1359, 21, 0], [95, 2375, 1], [0, 119, 0]]"
0.5983404032595316,1.2332285379168586,550,14334,0.9538161015766708,0.9568626522187159,0.944328097731239,0.926277214917008,0.9997477931904162,0.9412071664637328,0.9308925476603119,0.998740236835475,5730,4639,3965,3970,0.9405541561712847,0.637245307798085,0.9847826086956522,0.9611493322541481,0.0,0.9346629986244842,0.9443339960238568,0.0,1380,2471,119,18304,0.9509396853146853,0.9557872010002751,0.9521800281293952,0.9383966244725739,0.970617042115573,0.9398861585450506,0.935633151030711,0.9984886649874055,7110,7110,4084,"[[6770, 339, 1], [433, 6672, 5], [0, 120, 3964]]","[[1359, 21, 0], [95, 2375, 1], [0, 119, 0]]"
0.5959130766617065,1.2331555665274292,545,14334,0.9537463373796568,0.9567985083704099,0.944153577661431,0.926277214917008,0.9997477931904162,0.941196938065414,0.9306909248429717,0.998740236835475,5730,4639,3965,3970,0.9405541561712847,0.637245307798085,0.9847826086956522,0.9611493322541481,0.0,0.9346629986244842,0.9443339960238568,0.0,1380,2471,119,18304,0.9508850524475524,0.9557407219348568,0.9520393811533052,0.9383966244725739,0.970617042115573,0.939877811718967,0.9355019629837352,0.9984886649874055,7110,7110,4084,"[[6769, 340, 1], [433, 6672, 5], [0, 120, 3964]]","[[1359, 21, 0], [95, 2375, 1], [0, 119, 0]]"
0.6044432501067933,1.2331555665274292,559,14334,0.9537463373796568,0.9567985083704099,0.944153577661431,0.926277214917008,0.9997477931904162,0.941196938065414,0.9306909248429717,0.998740236835475,5730,4639,3965,3970,0.9405541561712847,0.637245307798085,0.9847826086956522,0.9611493322541481,0.0,0.9346629986244842,0.9443339960238568,0.0,1380,2471,119,18304,0.9508850524475524,0.9557407219348568,0.9520393811533052,0.9383966244725739,0.970617042115573,0.939877811718967,0.9355019629837352,0.9984886649874055,7110,7110,4084,"[[6769, 340, 1], [433, 6672, 5], [0, 120, 3964]]","[[1359, 21, 0], [95, 2375, 1], [0, 119, 0]]"
0.5995355355912718,1.2331555665274292,555,14334,0.9537463373796568,0.9567985083704099,0.944153577661431,0.926277214917008,0.9997477931904162,0.941196938065414,0.9306909248429717,0.998740236835475,5730,4639,3965,3970,0.9405541561712847,0.637245307798085,0.9847826086956522,0.9611493322541481,0.0,0.9346629986244842,0.9443339960238568,0.0,1380,2471,119,18304,0.9508850524475524,0.9557407219348568,0.9520393811533052,0.9383966244725739,0.970617042115573,0.939877811718967,0.9355019629837352,0.9984886649874055,7110,7110,4084,"[[6769, 340, 1], [433, 6672, 5], [0, 120, 3964]]","[[1359, 21, 0], [95, 2375, 1], [0, 119, 0]]"
0.6192814173470531,1.2331555665274292,573,14334,0.9537463373796568,0.9567985083704099,0.944153577661431,0.926277214917008,0.9997477931904162,0.941196938065414,0.9306909248429717,0.998740236835475,5730,4639,3965,3970,0.9405541561712847,0.637245307798085,0.9847826086956522,0.9611493322541481,0.0,0.9346629986244842,0.9443339960238568,0.0,1380,2471,119,18304,0.9508850524475524,0.9557407219348568,0.9520393811533052,0.9383966244725739,0.970617042115573,0.939877811718967,0.9355019629837352,0.9984886649874055,7110,7110,4084,"[[6769, 340, 1], [433, 6672, 5], [0, 120, 3964]]","[[1359, 21, 0], [95, 2375, 1], [0, 119, 0]]"
0.5895503466846341,1.2330825952317273,536,14334,0.9536765731826427,0.9567343663966482,0.943979057591623,0.926277214917008,0.9997477931904162,0.9411867061075344,0.9304893893460372,0.998740236835475,5730,4639,3965,3970,0.9405541561712847,0.637245307798085,0.9847826086956522,0.9611493322541481,0.0,0.9346629986244842,0.9443339960238568,0.0,1380,2471,119,18304,0.9508304195804196,0.9556942425182569,0.9518987341772152,0.9383966244725739,0.970617042115573,0.9398694625746424,0.9353708117201739,0.9984886649874055,7110,7110,4084,"[[6768, 341, 1], [433, 6672, 5], [0, 120, 3964]]","[[1359, 21, 0], [95, 2375, 1], [0, 119, 0]]"
0.6104293644200668,1.2330825952317273,564,14334,0.9536765731826427,0.9567343663966482,0.943979057591623,0.926277214917008,0.9997477931904162,0.9411867061075344,0.9304893893460372,0.998740236835475,5730,4639,3965,3970,0.9405541561712847,0.637245307798085,0.9847826086956522,0.9611493322541481,0.0,0.9346629986244842,0.9443339960238568,0.0,1380,2471,119,18304,0.9508304195804196,0.9556942425182569,0.9518987341772152,0.9383966244725739,0.970617042115573,0.9398694625746424,0.9353708117201739,0.9984886649874055,7110,7110,4084,"[[6768, 341, 1], [433, 6672, 5], [0, 120, 3964]]","[[1359, 21, 0], [95, 2375, 1], [0, 119, 0]]"
0.5923004896102199,1.2330096240295652,541,14334,0.9536068089856286,0.9566702262936911,0.943804537521815,0.926277214917008,0.9997477931904162,0.9411764705882353,0.930287941112795,0.998740236835475,5730,4639,3965,3970,0.9405541561712847,0.637245307798085,0.9847826086956522,0.9611493322541481,0.0,0.9346629986244842,0.9443339960238568,0.0,1380,2471,119,18304,0.9507757867132867,0.9556477627491077,0.9517580872011252,0.9383966244725739,0.970617042115573,0.9398611111111111,0.9352396972245585,0.9984886649874055,7110,7110,4084,"[[6767, 342, 1], [433, 6672, 5], [0, 120, 3964]]","[[1359, 21, 0], [95, 2375, 1], [0, 119, 0]]"
0.6137022167009952,1.2329366529207564,568,14334,0.9535370447886145,0.9566060880577988,0.943630017452007,0.926277214917008,0.9997477931904162,0.9411662315056571,0.9300865800865801,0.998740236835475,5730,4639,3965,3970,0.9405541561712847,0.637245307798085,0.9847826086956522,0.9611493322541481,0.0,0.9346629986244842,0.9443339960238568,0.0,1380,2471,119,18304,0.9507211538461539,0.955601282626041,0.9516174402250351,0.9383966244725739,0.970617042115573,0.9398527573274066,0.9351086194814295,0.9984886649874055,7110,7110,4084,"[[6766, 343, 1], [433, 6672, 5], [0, 120, 3964]]","[[1359, 21, 0], [95, 2375, 1], [0, 119, 0]]"
0.6264597335467136,1.232863681905114,577,14334,0.9534672805916004,0.9565419516852329,0.9434554973821989,0.926277214917008,0.9997477931904162,0.9411559888579387,0.9298853062107769,0.998740236835475,5730,4639,3965,3970,0.9405541561712847,0.637245307798085,0.9847826086956522,0.9611493322541481,0.0,0.9346629986244842,0.9443339960238568,0.0,1380,2471,119,18304,0.9506665209790209,0.9555548021476895,0.9514767932489452,0.9383966244725739,0.970617042115573,0.9398444012225619,0.9349775784753364,0.9984886649874055,7110,7110,4084,"[[6765, 344, 1], [433, 6672, 5], [0, 120, 3964]]","[[1359, 21, 0], [95, 2375, 1], [0, 119, 0]]"
0.6301952937831145,1.2324988282178557,583,14334,0.95311845960653,0.9562212976414745,0.9425828970331588,0.926277214917008,0.9997477931904162,0.9411047220770169,0.9288802421098141,0.998740236835475,5730,4639,3965,3970,0.9403022670025188,0.637059154130189,0.9840579710144928,0.9611493322541481,0.0,0.9346180316586373,0.9439586645468998,0.0,1380,2471,119,18304,0.9503387237762237,0.9552759117399923,0.950632911392405,0.9383966244725739,0.970617042115573,0.9397942157953282,0.9341921030523663,0.9984886649874055,7110,7110,4084,"[[6759, 350, 1], [433, 6672, 5], [0, 120, 3964]]","[[1358, 22, 0], [95, 2375, 1], [0, 119, 0]]"
0.6339990484230421,1.2324988282178557,587,14334,0.95311845960653,0.9562212976414745,0.9425828970331588,0.926277214917008,0.9997477931904162,0.9411047220770169,0.9288802421098141,0.998740236835475,5730,4639,3965,3970,0.9403022670025188,0.637059154130189,0.9840579710144928,0.9611493322541481,0.0,0.9346180316586373,0.9439586645468998,0.0,1380,2471,119,18304,0.9503387237762237,0.9552759117399923,0.950632911392405,0.9383966244725739,0.970617042115573,0.9397942157953282,0.9341921030523663,0.9984886649874055,7110,7110,4084,"[[6759, 350, 1], [433, 6672, 5], [0, 120, 3964]]","[[1358, 22, 0], [95, 2375, 1], [0, 119, 0]]"
0.6463404850781417,1.2323528873885765,606,14334,0.9529789312125018,0.9560930489364542,0.9422338568935428,0.926277214917008,0.9997477931904162,0.9410841903433851,0.9284788245462403,0.998740236835475,5730,4639,3965,3970,0.9400503778337531,0.6368729394992426,0.9833333333333333,0.9611493322541481,0.0,0.9345730027548209,0.9435836313071116,0.0,1380,2471,119,18304,0.9501748251748252,0.9551364616289936,0.950210970464135,0.9383966244725739,0.970617042115573,0.9397690916678259,0.9337998600419875,0.9984886649874055,7110,7110,4084,"[[6756, 353, 1], [433, 6672, 5], [0, 120, 3964]]","[[1357, 23, 0], [95, 2375, 1], [0, 119, 0]]"
0.6598973604092118,1.2323528873885765,621,14334,0.9529789312125018,0.9560930489364542,0.9422338568935428,0.926277214917008,0.9997477931904162,0.9410841903433851,0.9284788245462403,0.998740236835475,5730,4639,3965,3970,0.9397984886649874,0.6366866637982344,0.9826086956521739,0.9611493322541481,0.0,0.9345279117849759,0.943208895949166,0.0,1380,2471,119,18304,0.9501201923076923,0.9550899775225554,0.950070323488045,0.9383966244725739,0.970617042115573,0.9397607122982748,0.9336691855583543,0.9984886649874055,7110,7110,4084,"[[6755, 354, 1], [433, 6672, 5], [0, 120, 3964]]","[[1356, 24, 0], [95, 2375, 1], [0, 119, 0]]"
0.6396504477303833,1.2322799171115377,597,14334,0.9529091670154877,0.9560289273359631,0.9420593368237348,0.926277214917008,0.9997477931904162,0.9410739191073919,0.9282782458414345,0.998740236835475,5730,4639,3965,3970,0.9400503778337531,0.6368729394992426,0.9833333333333333,0.9611493322541481,0.0,0.9345730027548209,0.9435836313071116,0.0,1380,2471,119,18304,0.9501201923076923,0.9550899775225554,0.950070323488045,0.9383966244725739,0.970617042115573,0.9397607122982748,0.9336691855583543,0.9984886649874055,7110,7110,4084,"[[6755, 354, 1], [433, 6672, 5], [0, 120, 3964]]","[[1357, 23, 0], [95, 2375, 1], [0, 119, 0]]"
0.6373287918572303,1.2322799171115377,592,14334,0.9529091670154877,0.9560289273359631,0.9420593368237348,0.926277214917008,0.9997477931904162,0.9410739191073919,0.9282782458414345,0.998740236835475,5730,4639,3965,3970,0.9403022670025188,0.637059154130189,0.9840579710144928,0.9611493322541481,0.0,0.9346180316586373,0.9439586645468998,0.0,1380,2471,119,18304,0.9501748251748252,0.9551364616289936,0.950210970464135,0.9383966244725739,0.970617042115573,0.9397690916678259,0.9337998600419875,0.9984886649874055,7110,7110,4084,"[[6756, 353, 1], [433, 6672, 5], [0, 120, 3964]]","[[1358, 22, 0], [95, 2375, 1], [0, 119, 0]]"
0.6557043183928656,1.2322799171115377,616,14334,0.9529091670154877,0.9560289273359631,0.9420593368237348,0.926277214917008,0.9997477931904162,0.9410739191073919,0.9282782458414345,0.998740236835475,5730,4639,3965,3970,0.9397984886649874,0.6366866637982344,0.9826086956521739,0.9611493322541481,0.0,0.9345279117849759,0.943208895949166,0.0,1380,2471,119,18304,0.9500655594405595,0.9550434930457845,0.949929676511955,0.9383966244725739,0.970617042115573,0.9397523305969111,0.9335385476423674,0.9984886649874055,7110,7110,4084,"[[6754, 355, 1], [433, 6672, 5], [0, 120, 3964]]","[[1356, 24, 0], [95, 2375, 1], [0, 119, 0]]"
0.6519211663392209,1.2322799171115377,612,14334,0.9529091670154877,0.9560289273359631,0.9420593368237348,0.926277214917008,0.9997477931904162,0.9410739191073919,0.9282782458414345,0.998740236835475,5730,4639,3965,3970,0.9397984886649874,0.6366866637982344,0.9826086956521739,0.9611493322541481,0.0,0.9345279117849759,0.943208895949166,0.0,1380,2471,119,18304,0.9500655594405595,0.9550434930457845,0.949929676511955,0.9383966244725739,0.970617042115573,0.9397523305969111,0.9335385476423674,0.9984886649874055,7110,7110,4084,"[[6754, 355, 1], [433, 6672, 5], [0, 120, 3964]]","[[1356, 24, 0], [95, 2375, 1], [0, 119, 0]]"
0.6426688509123879,1.2322069469259842,602,14334,0.9528394028184736,0.9559648075651722,0.9418848167539267,0.926277214917008,0.9997477931904162,0.9410636442894508,0.9280777537796976,0.998740236835475,5730,4639,3965,3970,0.9400503778337531,0.6368729394992426,0.9833333333333333,0.9611493322541481,0.0,0.9345730027548209,0.9435836313071116,0.0,1380,2471,119,18304,0.9500655594405595,0.9550434930457845,0.949929676511955,0.9383966244725739,0.970617042115573,0.9397523305969111,0.9335385476423674,0.9984886649874055,7110,7110,4084,"[[6754, 355, 1], [433, 6672, 5], [0, 120, 3964]]","[[1357, 23, 0], [95, 2375, 1], [0, 119, 0]]"
0.6645304861017433,1.232061006828585,625,14334,0.9526998744244454,0.955836573497757,0.9415357766143106,0.926277214917008,0.9997477931904162,0.9410430839002267,0.9276770293609672,0.998740236835475,5730,4639,3965,3970,0.9397984886649874,0.6366866637982344,0.9826086956521739,0.9611493322541481,0.0,0.9345279117849759,0.943208895949166,0.0,1380,2471,119,18304,0.9499016608391608,0.9549040373797947,0.949507735583685,0.9383966244725739,0.970617042115573,0.9397271714922049,0.9331468531468532,0.9984886649874055,7110,7110,4084,"[[6751, 358, 1], [433, 6672, 5], [0, 120, 3964]]","[[1356, 24, 0], [95, 2375, 1], [0, 119, 0]]"
0.6669317268682747,1.2318420973639583,630,14334,0.9524905818334031,0.9556442360260616,0.9410122164048865,0.926277214917008,0.9997477931904162,0.9410122164048865,0.9270765911542611,0.998740236835475,5730,4639,3965,3970,0.9397984886649874,0.6366866637982344,0.9826086956521739,0.9611493322541481,0.0,0.9345279117849759,0.943208895949166,0.0,1380,2471,119,18304,0.9497377622377622,0.9547645783315578,0.9490857946554149,0.9383966244725739,0.970617042115573,0.939701991366105,0.9327554872081644,0.9984886649874055,7110,7110,4084,"[[6748, 361, 1], [433, 6672, 5], [0, 120, 3964]]","[[1356, 24, 0], [95, 2375, 1], [0, 119, 0]]"
0.6822758889692194,1.2318420973639583,644,14334,0.9524905818334031,0.9556442360260616,0.9410122164048865,0.926277214917008,0.9997477931904162,0.9410122164048865,0.9270765911542611,0.998740236835475,5730,4639,3965,3970,0.9397984886649874,0.6366866637982344,0.9826086956521739,0.9611493322541481,0.0,0.9345279117849759,0.943208895949166,0.0,1380,2471,119,18304,0.9497377622377622,0.9547645783315578,0.9490857946554149,0.9383966244725739,0.970617042115573,0.939701991366105,0.9327554872081644,0.9984886649874055,7110,7110,4084,"[[6748, 361, 1], [433, 6672, 5], [0, 120, 3964]]","[[1356, 24, 0], [95, 2375, 1], [0, 119, 0]]"
0.6720225126719093,1.231769127723395,635,14334,0.952420817636389,0.9555801271550838,0.9408376963350785,0.926277214917008,0.9997477931904162,0.9410019200558561,0.926876617773943,0.998740236835475,5730,4639,3965,3970,0.9397984886649874,0.6366866637982344,0.9826086956521739,0.9611493322541481,0.0,0.9345279117849759,0.943208895949166,0.0,1380,2471,119,18304,0.9496831293706294,0.9547180912241502,0.9489451476793249,0.9383966244725739,0.970617042115573,0.9396935933147632,0.9326251048364551,0.9984886649874055,7110,7110,4084,"[[6747, 362, 1], [433, 6672, 5], [0, 120, 3964]]","[[1356, 24, 0], [95, 2375, 1], [0, 119, 0]]"
0.6760898989879619,1.231769127723395,639,14334,0.952420817636389,0.9555801271550838,0.9408376963350785,0.926277214917008,0.9997477931904162,0.9410019200558561,0.926876617773943,0.998740236835475,5730,4639,3965,3970,0.9397984886649874,0.6366866637982344,0.9826086956521739,0.9611493322541481,0.0,0.9345279117849759,0.943208895949166,0.0,1380,2471,119,18304,0.9496831293706294,0.9547180912241502,0.9489451476793249,0.9383966244725739,0.970617042115573,0.9396935933147632,0.9326251048364551,0.9984886649874055,7110,7110,4084,"[[6747, 362, 1], [433, 6672, 5], [0, 120, 3964]]","[[1356, 24, 0], [95, 2375, 1], [0, 119, 0]]"
0.6862973283350997,1.231550219342033,648,14334,0.9522115250453467,0.9553878113486839,0.9403141361256544,0.926277214917008,0.9997477931904162,0.9409710094306671,0.926277214917008,0.998740236835475,5730,4639,3965,3970,0.9397984886649874,0.6366866637982344,0.9826086956521739,0.9611493322541481,0.0,0.9345279117849759,0.943208895949166,0.0,1380,2471,119,18304,0.9495192307692307,0.9545786276087863,0.9485232067510548,0.9383966244725739,0.970617042115573,0.9396683851191305,0.9322341763308649,0.9984886649874055,7110,7110,4084,"[[6744, 365, 1], [433, 6672, 5], [0, 120, 3964]]","[[1356, 24, 0], [95, 2375, 1], [0, 119, 0]]"
0.8191886319139997,1.231550219342033,699,14334,0.9522115250453467,0.9553878113486839,0.9403141361256544,0.926277214917008,0.9997477931904162,0.9409710094306671,0.926277214917008,0.998740236835475,5730,4639,3965,3970,0.9395465994962217,0.6365003269200357,0.9818840579710145,0.9611493322541481,0.0,0.9344827586206896,0.9428344581183009,0.0,1380,2471,119,18304,0.9494645979020979,0.9545321389680569,0.9483825597749649,0.9383966244725739,0.970617042115573,0.939659977703456,0.9321039396479464,0.9984886649874055,7110,7110,4084,"[[6743, 366, 1], [433, 6672, 5], [0, 120, 3964]]","[[1355, 25, 0], [95, 2375, 1], [0, 119, 0]]"
0.7738545847184521,1.2314772500610662,690,14334,0.9521417608483327,0.9553237096696301,0.9401396160558464,0.926277214917008,0.9997477931904162,0.9409606986899564,0.9260775862068965,0.998740236835475,5730,4639,3965,3970,0.9395465994962217,0.6365003269200357,0.9818840579710145,0.9611493322541481,0.0,0.9344827586206896,0.9428344581183009,0.0,1380,2471,119,18304,0.949409965034965,0.9544856499405762,0.9482419127988748,0.9383966244725739,0.970617042115573,0.9396515679442509,0.9319737393490711,0.9984886649874055,7110,7110,4084,"[[6742, 367, 1], [433, 6672, 5], [0, 120, 3964]]","[[1355, 25, 0], [95, 2375, 1], [0, 119, 0]]"
0.694081957298529,1.2314772500610662,653,14334,0.9521417608483327,0.9553237096696301,0.9401396160558464,0.926277214917008,0.9997477931904162,0.9409606986899564,0.9260775862068965,0.998740236835475,5730,4639,3965,3970,0.9397984886649874,0.6366866637982344,0.9826086956521739,0.9611493322541481,0.0,0.9345279117849759,0.943208895949166,0.0,1380,2471,119,18304,0.9494645979020979,0.9545321389680569,0.9483825597749649,0.9383966244725739,0.970617042115573,0.939659977703456,0.9321039396479464,0.9984886649874055,7110,7110,4084,"[[6743, 366, 1], [433, 6672, 5], [0, 120, 3964]]","[[1356, 24, 0], [95, 2375, 1], [0, 119, 0]]"
0.7887672871861325,1.2314772500610662,694,14334,0.9521417608483327,0.9553237096696301,0.9401396160558464,0.926277214917008,0.9997477931904162,0.9409606986899564,0.9260775862068965,0.998740236835475,5730,4639,3965,3970,0.9395465994962217,0.6365003269200357,0.9818840579710145,0.9611493322541481,0.0,0.9344827586206896,0.9428344581183009,0.0,1380,2471,119,18304,0.949409965034965,0.9544856499405762,0.9482419127988748,0.9383966244725739,0.970617042115573,0.9396515679442509,0.9319737393490711,0.9984886649874055,7110,7110,4084,"[[6742, 367, 1], [433, 6672, 5], [0, 120, 3964]]","[[1355, 25, 0], [95, 2375, 1], [0, 119, 0]]"
0.7345112281823125,1.2314042808695322,680,14334,0.9520719966513186,0.9552596097792346,0.9399650959860384,0.926277214917008,0.9997477931904162,0.9409503843466107,0.9258780435251024,0.998740236835475,5730,4639,3965,3970,0.9397984886649874,0.6366866637982344,0.9826086956521739,0.9611493322541481,0.0,0.9345279117849759,0.943208895949166,0.0,1380,2471,119,18304,0.949409965034965,0.9544856499405762,0.9482419127988748,0.9383966244725739,0.970617042115573,0.9396515679442509,0.9319737393490711,0.9984886649874055,7110,7110,4084,"[[6742, 367, 1], [433, 6672, 5], [0, 120, 3964]]","[[1356, 24, 0], [95, 2375, 1], [0, 119, 0]]"
0.7147047152790525,1.2313313117672449,671,14334,0.9520022324543045,0.9551955116737697,0.9397905759162304,0.926277214917008,0.9997477931904162,0.940940066398742,0.9256785868160275,0.998740236835475,5730,4639,3965,3970,0.9397984886649874,0.6366866637982344,0.9826086956521739,0.9611493322541481,0.0,0.9345279117849759,0.943208895949166,0.0,1380,2471,119,18304,0.9493553321678322,0.9544391605249759,0.9481012658227848,0.9383966244725739,0.970617042115573,0.9396431558405353,0.9318435754189944,0.9984886649874055,7110,7110,4084,"[[6741, 368, 1], [433, 6672, 5], [0, 120, 3964]]","[[1356, 24, 0], [95, 2375, 1], [0, 119, 0]]"
0.7019441116373834,1.2312583427540178,662,14334,0.9519324682572904,0.9551314153495075,0.9396160558464224,0.926277214917008,0.9997477931904162,0.94092974484446,0.9254792160241223,0.998740236835475,5730,4639,3965,3970,0.9397984886649874,0.6366866637982344,0.9826086956521739,0.9611493322541481,0.0,0.9345279117849759,0.943208895949166,0.0,1380,2471,119,18304,0.9493006993006993,0.954392670719888,0.9479606188466948,0.9383966244725739,0.970617042115573,0.9396347413913286,0.9317134478424801,0.9984886649874055,7110,7110,4084,"[[6740, 369, 1], [433, 6672, 5], [0, 120, 3964]]","[[1356, 24, 0], [95, 2375, 1], [0, 119, 0]]"
0.7534490146246637,1.2312583427540178,684,14334,0.9519324682572904,0.9551314153495075,0.9396160558464224,0.926277214917008,0.9997477931904162,0.94092974484446,0.9254792160241223,0.998740236835475,5730,4639,3965,3970,0.9397984886649874,0.6366866637982344,0.9826086956521739,0.9611493322541481,0.0,0.9345279117849759,0.943208895949166,0.0,1380,2471,119,18304,0.9493006993006993,0.954392670719888,0.9479606188466948,0.9383966244725739,0.970617042115573,0.9396347413913286,0.9317134478424801,0.9984886649874055,7110,7110,4084,"[[6740, 369, 1], [433, 6672, 5], [0, 120, 3964]]","[[1356, 24, 0], [95, 2375, 1], [0, 119, 0]]"
0.7086037267924431,1.2312583427540178,666,14334,0.9519324682572904,0.9551314153495075,0.9396160558464224,0.926277214917008,0.9997477931904162,0.94092974484446,0.9254792160241223,0.998740236835475,5730,4639,3965,3970,0.9397984886649874,0.6366866637982344,0.9826086956521739,0.9611493322541481,0.0,0.9345279117849759,0.943208895949166,0.0,1380,2471,119,18304,0.9493006993006993,0.954392670719888,0.9479606188466948,0.9383966244725739,0.970617042115573,0.9396347413913286,0.9317134478424801,0.9984886649874055,7110,7110,4084,"[[6740, 369, 1], [433, 6672, 5], [0, 120, 3964]]","[[1356, 24, 0], [95, 2375, 1], [0, 119, 0]]"
0.6992857320392641,1.2311853738296645,657,14334,0.9518627040602763,0.9550673208027214,0.9394415357766143,0.926277214917008,0.9997477931904162,0.9409194196818738,0.9252799310938846,0.998740236835475,5730,4639,3965,3970,0.9397984886649874,0.6366866637982344,0.9826086956521739,0.9611493322541481,0.0,0.9345279117849759,0.943208895949166,0.0,1380,2471,119,18304,0.9492460664335665,0.9543461805239435,0.9478199718706047,0.9383966244725739,0.970617042115573,0.9396263245956498,0.9315833566043005,0.9984886649874055,7110,7110,4084,"[[6739, 370, 1], [433, 6672, 5], [0, 120, 3964]]","[[1356, 24, 0], [95, 2375, 1], [0, 119, 0]]"
0.7254958380425038,1.2311853738296645,675,14334,0.9518627040602763,0.9550673208027214,0.9394415357766143,0.926277214917008,0.9997477931904162,0.9409194196818738,0.9252799310938846,0.998740236835475,5730,4639,3965,3970,0.9397984886649874,0.6366866637982344,0.9826086956521739,0.9611493322541481,0.0,0.9345279117849759,0.943208895949166,0.0,1380,2471,119,18304,0.9492460664335665,0.9543461805239435,0.9478199718706047,0.9383966244725739,0.970617042115573,0.9396263245956498,0.9315833566043005,0.9984886649874055,7110,7110,4084,"[[6739, 370, 1], [433, 6672, 5], [0, 120, 3964]]","[[1356, 24, 0], [95, 2375, 1], [0, 119, 0]]"
