idx,split,y,class_name,record_id,subject_id,rms,std,ptp_p99_p01,mean_abs,low_amp_ratio,flatline_ratio,contact_loss_win_ratio,local_rms_cv,baseline_step,diff_abs_median,diff_abs_p95,detail_instability,lf_ratio,hf_ratio,qrs_band_ratio,spectral_entropy,qrs_peak_count,aggressive_peak_count,spurious_peak_density,qrs_prom_median,qrs_prom_p90,qrs_width_median,qrs_slope_median,qrs_count_low,qrs_count_high,qrs_count_deviation,periodicity,qrs_visibility,clipping_like_ratio,fatal_or_score,medium_detail_unreliable_score,sqi_iSQI,sqi_bSQI,sqi_pSQI,sqi_sSQI,sqi_kSQI,sqi_fSQI,sqi_basSQI,hjorth_activity,hjorth_mobility,hjorth_complexity,zero_crossing_rate,diff_zero_crossing_rate,sample_entropy_proxy,amplitude_entropy,higuchi_fd_proxy,template_corr,detector_count_std,detector_agreement,rr_count_detector_a,rr_count_detector_b,rr_count_detector_c,non_qrs_rms_ratio,non_qrs_diff_p95,band_0p3_1,band_1_5,band_5_15,band_15_30,band_30_45,wavelet_e0,wavelet_e1,wavelet_e2,wavelet_e3,wavelet_e4,pc1,pc2,pc3,pc4,pc5,pc6,pc7,pc8,pca_own_distance,pca_nearest_other_distance,pca_margin,knn_label_purity,nearest_other_class,is_clean_strict,is_clean_train_target,clean_tier,class_margin_percentile,class_centrality_percentile,ambiguous_type,pca_margin_rank,own_centrality_rank,boundary_confidence,original_region,region_confidence,selected_l7150,selected_l7150_rank,slice
20587,train,0,good,105001,105,0.2879210799296428,0.2726059283129017,1.7609394798055285,0.1234220691175869,0.4272,0.4467574059247398,0.0,0.0981784470599379,0.1004143833823329,0.0049622673541307,0.0831121131777762,1.6748784327540924,0.1808960639644428,0.1049173949069682,0.436019154252275,0.7664302840685062,18.0,32.0,1.4,4.19751508802598,7.064624596647017,0.0561717537330816,1.8888687483434976,0.0,0.0,0.5,0.6877683050720838,0.7625820744342714,0.0152,0.8393391592557461,0.7625820744342714,0.0,0.8888888888887901,0.6135320239161255,4.476617738559162,27.58997842062898,0.0144115292233787,0.8944549345206725,0.0743139966992204,0.5730335249063506,1.7953504982675192,0.0512409927942353,0.3862179487179487,0.2274823824612575,0.5462889001488545,1.336931283239101,0.8709886353946754,4.242640687119285,0.1907435698305462,18.0,18.0,9.0,0.1492192640389777,0.0224681407213211,0.1808960639644428,0.2410174564775217,0.3631693548155401,0.1950863419585684,0.0197878920321601,0.6089704664153319,0.1569046987881842,0.1921376273611559,0.0348378561245901,0.0071493410162051,-6.29967543205211,1.3753846145715003,-2.424238615531178,3.9186839671805385,0.6118375662903073,-0.9814256161558144,0.6409669977646983,0.3589883518804145,5.209978551584723,9.09902086327762,3.889042311692898,1.0,medium,True,True,clean_core_strict,0.944610690606114,0.4665845215044299,clean_or_target,0.944610690606114,0.4665845215044299,1.0483917150736373,clean_core,1.0483917150736373,True,1421,added
20236,train,0,good,105001,105,0.3233991952139291,0.307708685050606,1.8203652796521768,0.1265474398105638,0.5184,0.4435548438751001,0.0,0.0174539619986473,0.0681522026995032,0.0056056156754493,0.1071859425865113,1.9121138083826623,0.0022233443251452,0.1344812661193305,0.4803087651622439,0.780563040325819,17.0,35.0,1.8,7.045615711083938,7.268448821629561,0.0215224621740626,3.9386163668867513,0.0,0.0,0.4285714285714285,0.6881224673974073,1.2085967792851542,0.0152,1.0,1.2085967792851542,0.0,0.8181818181817438,0.5848706096111033,4.9413046105238925,31.348600393704388,0.0088070456365092,0.936484966994926,0.0946846387013994,0.6219266591417056,1.6786044377642646,0.0464371497197758,0.3886217948717949,0.2311917593696154,0.568127411048834,1.3798733017357585,0.8746875629236017,3.2998316455372216,0.2325672450543258,17.0,17.0,10.0,0.2099666378859521,0.0384567275876178,0.0022233443251452,0.3419073550365275,0.3988740460123932,0.2326901674741747,0.0242854157992534,0.4664602374431368,0.2964258936154669,0.1726275432823372,0.0584916531584946,0.0059946646244519,-6.497935611173423,-2.8286866756948785,-3.3356539809893064,1.8395968702699728,1.7778028767629963,-0.745854683558511,0.2277096828687548,2.242436514144137,5.694761928952968,9.78397574476096,4.089213815807991,1.0,medium,True,True,clean_core_strict,0.9813413131490936,0.383852608108901,clean_or_target,0.9813413131490936,0.383852608108901,1.048374112538872,clean_core,1.048374112538872,True,1422,added
19511,train,0,good,105001,105,0.3228404619842579,0.3095118478390917,2.029368529245257,0.1310306828594097,0.424,0.4315452361889512,0.0,0.1140012402491948,0.2586771006793306,0.0065853521227836,0.1458979956805703,2.215489337720711,0.0101950077770155,0.1441814905478781,0.4999042167350774,0.815067743131659,13.0,39.0,2.6,6.803598013253039,7.051773252791546,0.0208447500736683,3.9547479982765705,0.0,0.0,0.1428571428571428,0.7664978648500627,0.9447631488321082,0.0152,1.0,0.9447631488321082,0.0,0.8181818181817438,0.5862287201548361,4.711295216263205,28.804157493822345,0.0144115292233787,0.9442828046790144,0.0957975877625322,0.6338908979407287,1.6505596730087249,0.0712570056044835,0.3429487179487179,0.2425250760599587,0.5768329078450446,1.3672719246175422,0.8227288754613794,0.9428090415820634,0.5147186257614297,13.0,11.0,13.0,0.3048282934011115,0.0604036450386047,0.0101950077770155,0.3080655403024929,0.416425671714053,0.2389382782391539,0.026374168941861,0.463236267428834,0.253488980566195,0.1917838140148274,0.0861308522840877,0.0053600767396074,-6.102567155250115,-2.508945122426145,-4.437141744092619,0.042706804900691,0.7774516555623594,0.5369138721280216,-0.2016796771607162,1.053595404123555,5.321828451269261,9.246740225497424,3.924911774228163,1.0,medium,True,True,clean_core_strict,0.95223845567095,0.4490993369711905,clean_or_target,0.95223845567095,0.4490993369711905,1.0483271724461656,clean_core,1.0483271724461656,True,1423,added
20204,train,0,good,105001,105,0.3233991979974875,0.3089554665439111,2.058407115712762,0.1260526784241898,0.4864,0.4619695756605284,0.0,0.1196133267753958,0.1414985616421825,0.0055798273533582,0.1386232465505593,2.4843599870725246,0.00891739386157,0.1375632126789101,0.4923987663833594,0.7673932340345292,16.0,34.0,1.8,6.741002813367749,6.94445708252074,0.0215358909292872,3.837030032608787,0.0,0.0,0.3571428571428571,0.6957422834015585,1.185450524817513,0.0152,1.0,1.185450524817513,0.0,0.9090909090908263,0.5810438100733539,4.8992704051990765,30.3535138115454,0.0136108887109687,0.9440734568446498,0.0954534841282565,0.6318674242522763,1.649925094906142,0.0496397117694155,0.3782051282051282,0.2848990374103382,0.5357166880776394,1.4020249368247073,0.8793372058901474,2.357022603955158,0.2978830106243031,16.0,16.0,11.0,0.2253538347369867,0.0395645797252655,0.00891739386157,0.3212955289468418,0.4056520923088808,0.2397725876297251,0.0243594926930076,0.4654931605633716,0.2743234187128223,0.1879282319938045,0.0652683065961326,0.0069868741071978,-6.551037592625522,-2.638630105197725,-3.776649665402818,1.4319501999054691,1.8312824063478528,-0.1310049594752742,0.4752868127283605,2.039548108429884,5.710941024605802,9.805595186157843,4.094654161552043,1.0,medium,True,True,clean_core_strict,0.9826908408144106,0.3803907762717831,clean_or_target,0.9826908408144106,0.3803907762717831,1.0482890336208412,clean_core,1.0482890336208412,True,1424,added
20261,train,0,good,105001,105,0.3233991957755912,0.3079709249101694,2.033588708080351,0.1270964250662568,0.5224,0.4179343474779823,0.0,0.0179660706041489,0.0485021111291107,0.0059889435069635,0.0957078969106077,1.5980738003613664,0.0063345081992582,0.1290483664785311,0.4628155571290709,0.767389013920108,19.0,34.0,1.5,6.593540263467514,7.227498125206039,0.021865929220216,3.811211441486576,0.0,0.0,0.5714285714285714,0.6752686250277389,1.2206372041958715,0.0152,1.0,1.2206372041958715,0.0,0.89999999999991,0.5906027229372303,4.887172854756845,30.844879196753546,0.0072057646116893,0.9006065936709525,0.0948460944306068,0.6168322776028514,1.6899051606119992,0.0608486789431545,0.4310897435897436,0.2819722647829122,0.5380446479949437,1.3767423151110054,0.8713042294814544,4.242640687119285,0.1907435698305462,19.0,19.0,10.0,0.1376482578934869,0.0279030609875917,0.0063345081992582,0.3620073370429906,0.3834328440904783,0.2254762004763631,0.0227448214630683,0.4566390194468446,0.2899130172502744,0.1978390110195463,0.0497001412353837,0.0059088023956268,-6.41881487825372,-2.6579940577322865,-2.543632404781768,2.389015910087854,2.019865423227633,-0.9460035349050548,0.0978515816916584,2.396416822256185,5.561430421054782,9.595138541679106,4.033708120624324,1.0,medium,True,True,clean_core_strict,0.9712491932171566,0.405914451681042,clean_or_target,0.9712491932171566,0.405914451681042,1.048245027283929,clean_core,1.048245027283929,True,1425,added
19481,train,0,good,105001,105,0.3233991961790863,0.3095563899103287,1.726913584545254,0.1296147692904429,0.4304,0.4091273018414731,0.0,0.1037189489169103,0.2758915791713687,0.0069412626326084,0.1171192312613128,1.6872875834197187,0.006382411973848,0.142354794053331,0.4910772598264663,0.7759978503606365,13.0,45.0,3.2,6.949956006627438,7.237739361900368,0.0209072848748946,4.099130638354192,0.0,0.0,0.1428571428571428,0.7687682121212611,0.8126107980116887,0.0152,1.0,0.8126107980116887,0.0,0.9090909090908263,0.5839394623749157,4.75992338868155,29.29667337996285,0.0048038430744595,0.958208929557188,0.0958251623431877,0.6364644114685453,1.6443392041504523,0.0728582866293034,0.3477564102564102,0.2605405479699008,0.5636599583281168,1.3633999028864,0.838427004697277,0.816496580927726,0.5505102572168219,13.0,12.0,11.0,0.3005382254147691,0.0583109181374311,0.006382411973848,0.3229161186344911,0.4070687840582225,0.2387394526108801,0.0248827729364756,0.4607582497374959,0.2483974198693618,0.2206703134725757,0.0638088426010927,0.0063651651804081,-5.685635559412295,-2.605204962681541,-4.023327676393267,-0.2420371519962916,-0.0777641258461287,0.4850145111607423,-0.8287295205739518,0.8663030316272884,4.897671907466203,8.654151242396612,3.756479334930408,1.0,medium,True,True,clean_core_strict,0.9211993193686556,0.5180425981341313,clean_or_target,0.9211993193686556,0.5180425981341313,1.0481482133427211,clean_core,1.0481482133427211,True,1426,added
19429,train,0,good,105001,105,0.3233991958487262,0.3107929608122512,2.072042847126722,0.1335661756788671,0.3648,0.377101681345076,0.0,0.0208743496155095,0.1617971959981489,0.0073642525821924,0.1191573634743687,1.6180488154035142,0.0148726519138135,0.1267151593402713,0.4931234797453245,0.8097106082413379,12.0,46.0,3.4,6.908172752595692,7.38608342985347,0.0216325477389165,4.101610322343607,0.0,0.0,0.0714285714285714,0.8246656110159106,0.7742232241913237,0.0152,1.0,0.7742232241913237,0.0,0.89999999999991,0.5963317843169011,4.910438809897277,31.19976517345759,0.0088070456365092,0.930703916174817,0.0965922682745863,0.6170208335809009,1.684578707126816,0.0576461168935148,0.3549679487179487,0.2397453662906431,0.5522458158556521,1.3617716844199892,0.8741210843197558,0.9428090415820634,0.5147186257614297,12.0,14.0,12.0,0.2625725638465095,0.0457891464233398,0.0148726519138135,0.3280599627983229,0.4044672138706367,0.2303384691670327,0.0222497972675838,0.4162583233542946,0.3688712827047993,0.1404167420882806,0.0693020957732847,0.0051515474603058,-6.062991692814405,-2.7566712678270253,-3.7702411269510137,-0.3965651314916389,-0.276462957083317,0.5880348618216658,-0.9548141112312524,0.2736654685427382,4.959733118700639,8.73833564447731,3.7786025257766713,1.0,medium,True,True,clean_core_strict,0.9258346535234409,0.5071290265798275,clean_or_target,0.9258346535234409,0.5071290265798275,1.048051399401514,clean_core,1.048051399401514,True,1427,added
20468,train,0,good,105001,105,0.3132965451546493,0.2976535236791061,1.9284610316157325,0.1221793594373273,0.5616,0.5076060848678943,0.0,0.192951934206712,0.2378783951457514,0.0043526254594326,0.0849109143018722,1.9507931480423355,0.1135400500582972,0.1150040596347378,0.46013228953719,0.8004121907341099,18.0,30.0,1.2,4.240889775112019,7.457031970955528,0.0574056388342247,2.091523252393356,0.0,0.0,0.5,0.6765824127376782,0.8869865099532509,0.0152,0.920032477077903,0.8869865099532509,0.0,0.8888888888887901,0.6094499385712392,4.996121032490564,32.48518865631801,0.0184147317854283,0.9077086436856964,0.0885976242055178,0.5929301932415441,1.742614508080207,0.0360288230584467,0.4246794871794871,0.2311862192222665,0.5397650806741273,1.3521175637354388,0.8751002716416125,4.242640687119285,0.1907435698305462,18.0,18.0,9.0,0.0760430484583084,0.0161314487457275,0.1135400500582972,0.2774324373656435,0.3792254388942955,0.2103698450978307,0.0193997026735481,0.5732290409735007,0.1893099093297399,0.1669945329685474,0.0639375590123599,0.0065289483052798,-7.0303043177364,0.3083235472197128,-2.445453771451692,4.205962287133965,1.179427342724085,-0.0851256306590871,0.6167997099099166,1.27114304685188,5.716700095922671,9.809508159453706,4.092808063531035,1.0,medium,True,True,clean_core_strict,0.9822801150032272,0.3795106495335328,clean_or_target,0.9822801150032272,0.3795106495335328,1.047928181658159,clean_core,1.047928181658159,True,1428,added
20112,train,0,good,105001,105,0.3233991973186132,0.3093581310279825,2.0834680538624526,0.1306501021919481,0.4264,0.4539631705364291,0.0,0.0955279446402921,0.1623419677069308,0.0058863684535026,0.1266592547297475,2.151734818449869,0.0243404632919258,0.1300739245266191,0.4977217878674659,0.7462278269327869,14.0,33.0,1.9,6.725622780892353,7.001433083539481,0.0214095577137941,3.84106616184463,0.0,0.0,0.2142857142857142,0.7302767831883193,1.1543065500096208,0.0152,1.0,1.1543065500096208,0.0,0.89999999999991,0.5975687743777506,4.827049534825472,29.729719527294765,0.0152121697357886,0.9435219386920928,0.0957024570459639,0.6184873533671001,1.6733623051388735,0.0520416333066453,0.358974358974359,0.235897411774744,0.5588784692093606,1.3627084249327754,0.9017061349938552,1.4142135623730951,0.4142135623730951,14.0,14.0,11.0,0.2471260520241933,0.0445796534419059,0.0243404632919258,0.3077079296425937,0.4185909284348151,0.2260235354552607,0.0233182306535694,0.4579787400296192,0.2946778965187359,0.1724397943118197,0.0696522050360543,0.0052513552772748,-6.704259122290311,-2.546397602110139,-4.456068267460037,0.6991760095619644,1.412620793812369,0.0206956536809986,0.0852012605907319,1.4186625469883003,5.786964954645733,9.89968447299609,4.112719518350356,1.0,medium,True,True,clean_core_strict,0.9860939975356452,0.3696532300651294,clean_or_target,0.9860939975356452,0.3696532300651294,1.0476729449040665,clean_core,1.0476729449040665,True,1429,added
19931,train,0,good,105001,105,0.3233991982504748,0.3110281205716241,2.0996068463474504,0.1307205212544533,0.4088,0.4411529223378703,0.0,0.0291927767567489,0.1789055726413519,0.0057961656711995,0.0875674933195113,1.510780526453379,0.0107056561856233,0.1338036942900168,0.4947856517643406,0.8101146918420529,14.0,34.0,2.0,7.138828866817527,7.342836258010158,0.02140077842043,3.861280818808901,0.0,0.0,0.2142857142857142,0.7252515707480726,1.1773966979007997,0.0152,1.0,1.1773966979007997,0.0,0.89999999999991,0.5934814212519036,5.035632203427764,32.410241482720366,0.010408326661329,0.932270865297126,0.0967384955657544,0.6191214155553255,1.6729379107263584,0.0424339471577261,0.3733974358974359,0.2047024794683139,0.5879096332415816,1.3630643291874018,0.9048814066623204,1.8856180831641267,0.3465462064555278,14.0,14.0,10.0,0.2388595156531878,0.0422154203057287,0.0107056561856233,0.3216905398577498,0.4101246940842068,0.2356596471148328,0.0218166851865309,0.4806689962628478,0.2404896280554654,0.2066131642162722,0.0657228006125575,0.0065054017845755,-6.702639476956403,-2.805755136122727,-4.276504649887797,0.8809716291319307,1.3715491633293635,-0.5117201545277582,-0.2856434317891869,1.557034039922223,5.827942180895734,9.95675871702674,4.128816536131005,1.0,medium,True,True,clean_core_strict,0.9892037786774628,0.3626122161591269,clean_or_target,0.9892037786774628,0.3626122161591269,1.0476641436366836,clean_core,1.0476641436366836,True,1430,added
2515,train,0,good,100001,100,0.3148852779999233,0.3003563198823865,1.9383938877284528,0.1360737315192527,0.4128,0.2986389111289031,0.0,0.1049919362484699,0.2031905671483632,0.0094806551933288,0.1366688430309295,1.4415533113340788,0.0060677462251842,0.0899228175870651,0.5285076028205055,0.7578989376369631,23.0,48.0,2.5,1.5848230995131678,6.085944994826831,0.0967651850529509,0.2303047279524956,0.0,1.0,0.8571428571428571,0.7195083092810802,0.2393117306337907,0.0152,1.0,0.2124945766737421,0.0,0.9090909090908263,0.6761205166877716,4.142675492230315,22.54493995739532,0.0072057646116893,0.9546130454817672,0.0902139228861641,0.5724261660539658,1.7598243338576265,0.0672538030424339,0.3677884615384615,0.3337489947656005,0.6186301095931117,1.2902251927756905,0.7674689164156426,4.320493798938574,0.1879524791852022,23.0,21.0,13.0,0.1565435046239194,0.0523674358613789,0.0060677462251842,0.3380555290660591,0.4568777513730394,0.1901550978773875,0.0087780448923079,0.4342214375002,0.3292323644073524,0.165092175992571,0.0676137818125361,0.0038402312399165,-4.320485243232855,0.7331202288749248,2.245681033321928,4.617490458659594,-1.052095982408754,0.1078731079065922,0.1454986376680859,-0.916767617764554,5.361097347798665,7.158991468527654,1.797894120728989,1.0,medium,False,False,ambiguous_boundary,0.484832482544153,0.4431731502669718,good_medium_boundary,0.484832482544153,0.4431731502669718,0.6568092471982632,good_medium_overlap,0.5779921375344715,True,6401,added
3588,train,0,good,100001,100,0.3034066430783543,0.298500912243964,1.879393421858549,0.1506864534107619,0.2464,0.22177742193755,0.0,0.1292230515159204,0.3579406211642952,0.0123550556600093,0.2678337484598148,2.167805140257032,0.0144122700014136,0.126975367700161,0.6381955977606837,0.8111390927496387,24.0,63.0,3.9,5.227236836761859,6.051137544903963,0.0239981045254669,3.297942665763939,0.0,1.0,0.9285714285714286,0.7557748166279283,0.680816232178347,0.0152,1.0,0.680816232178347,0.0,0.8571428571427959,0.6262842117736702,3.8166773287448224,20.15052261488956,0.0056044835868694,0.9799321184300334,0.0891027986404605,0.6284803679415201,1.6617488937728442,0.0680544435548438,0.3733974358974359,0.3389964624554961,0.6715709638567509,1.3553449339512456,0.5859985631416502,1.699673171197595,0.3704152082810796,24.0,20.0,21.0,0.36251136954132,0.0711708754301071,0.0144122700014136,0.1724745596296207,0.5364390577987518,0.260536013122566,0.0160778598750255,0.3275676007766973,0.4065876885351807,0.2035785390704881,0.0555075772837303,0.0067585848158737,-2.6988619502745763,-2.2303017128826106,1.1458633578293778,-0.5135301022299555,1.34259636518308,-0.4867355452962793,0.5036668701049891,-0.2280736699675251,3.165102595889085,4.289611385476057,1.1245087895869723,0.9333333333333332,medium,False,False,ambiguous_boundary,0.3550431262101742,0.8517279821627648,good_medium_boundary,0.3550431262101742,0.8517279821627648,0.6567816698937979,good_medium_overlap,0.5779678695065422,True,6402,added
31086,val,0,good,114001,114,0.3233991972949965,0.3156657038373372,2.288604311048984,0.1433336080346198,0.3648,0.1873498799039231,0.0,0.1688304587475307,0.2060579875955867,0.0152609944343566,0.4769156768918033,3.125060863085368,0.0012603494431188,0.2361565922457713,0.5369760543854629,0.8745894247543126,18.0,59.0,4.1,6.029970930207518,6.699328748975745,0.0190864545895619,5.468839526248662,0.0,0.0,0.5,0.7758514599476087,0.634892156502328,0.0152,1.0,0.634892156502328,0.0,0.9333333333332712,0.4818723584922801,4.160295326420482,24.26408288494481,0.0064051240992794,0.9965192860881192,0.0996448402658075,0.8242728713681646,1.5033558470873292,0.0912730184147317,0.2572115384615384,0.2999593610843474,0.5839403334450818,1.4361180398473423,0.7841850222631979,1.699673171197595,0.3704152082810796,18.0,19.0,22.0,0.2923587338448568,0.0511618688702583,0.0012603494431188,0.1507563559788611,0.4175187374825069,0.3736281985476083,0.0567170687911832,0.2579831872170273,0.3088579807435896,0.2521890966606457,0.1562267583257112,0.0247429656523165,-2.88200530170144,-4.285462578398661,-1.1835478216818238,-1.0706256774931375,1.7821548478316789,0.9004625327748892,1.4931977444605384,0.698424756421885,5.055935715528379,6.873713041446193,1.817777325917814,0.9666666666666668,medium,False,False,ambiguous_boundary,0.4893504664671713,0.4909933697119051,good_medium_boundary,0.4893504664671713,0.4909933697119051,0.6567397171859415,good_medium_overlap,0.5779309511236285,True,6403,added
20969,train,0,good,105001,105,0.2440705222318635,0.2293440039613134,1.3305783727765077,0.1157752986015988,0.3736,0.3690952762209767,0.0,0.0570312088082755,0.1743630674512277,0.0055900737643241,0.1758338287472722,3.1454596417577947,0.0786185201602222,0.1047640778548737,0.4212613943624148,0.7753859140087829,22.0,45.0,2.3,2.0388843977849858,6.1482186115252135,0.0969571159861256,0.3247180434377515,0.0,0.0,0.7857142857142857,0.7077052755367802,0.2602737225317199,0.0152,0.8381126228389898,0.2602737225317199,0.0,0.89999999999991,0.6123942388490033,3.5500296925123687,18.467443936954208,0.0168134507606084,0.8630951871550905,0.0525986775661269,0.5638354332770229,1.7982929931781335,0.0592473979183346,0.3629807692307692,0.373063594470744,0.6153644022921835,1.329954423757023,0.6986473154404854,2.449489742783178,0.2898979485566356,22.0,19.0,16.0,0.1651583332212531,0.0249004166107624,0.0786185201602222,0.3599252699946277,0.3497648184395932,0.1979545357590645,0.0137329495237827,0.6024727239288213,0.2046870522592703,0.1181018454588437,0.0716025753697433,0.0031357884079431,-4.263690932422011,2.8781928183671,-0.5482476062342446,4.386272108956694,-2.2142982056949028,-0.0385263197097314,1.7413897116128942,-0.8420277939300833,5.969988041594222,7.992586080099567,2.022598038505345,1.0,medium,False,False,ambiguous_boundary,0.5315378747873027,0.3377339670245848,good_medium_boundary,0.5315378747873027,0.3377339670245848,0.6567388370592032,good_medium_overlap,0.5779301766120989,True,6404,added
2556,train,0,good,100001,100,0.3000981752989489,0.2864924750444698,1.829498950392007,0.1265604407508974,0.44,0.3498799039231385,0.0,0.1429132453985042,0.1381974335309858,0.0072218850255012,0.0963372845202682,1.3339612965861656,0.0558603650248721,0.0888754937548633,0.5045218279174142,0.7966042936545663,23.0,48.0,2.5,1.6476353237103998,6.424084197493788,0.097081100362061,0.2441045428222039,0.0,1.0,0.8571428571428571,0.6929616302428889,0.2375051386456203,0.0152,1.0,0.1991507812131885,0.0,0.79999999999992,0.6704881460822147,4.273495177173784,24.037293889053966,0.0088070456365092,0.9378780458269386,0.0820779425272567,0.5640294486254933,1.7750809941266104,0.0528422738190552,0.3565705128205128,0.3442382287951486,0.5978989237155451,1.2823221626822583,0.7649615003694256,3.741657386773941,0.2108967220595339,23.0,20.0,14.0,0.1182936767207858,0.0476240687421523,0.0558603650248721,0.3195717895589198,0.427883264649616,0.1876879008403376,0.0089866105635117,0.412169581477815,0.3502052893006471,0.188118480997594,0.0457765964193144,0.0037300419296058,-4.472767025163234,1.2218091626379486,1.8805155621929488,4.8123536182763935,-1.343536016223266,0.5988161735849882,0.0157374516246723,-0.264549126753767,5.523975377745394,7.391298150521883,1.8673227727764887,1.0,medium,False,False,ambiguous_boundary,0.4980343836179076,0.4130728158188112,good_medium_boundary,0.4980343836179076,0.4130728158188112,0.6567300357918207,good_medium_overlap,0.5779224314968022,True,6405,added
21372,train,0,good,105001,105,0.259945112976528,0.2462589805280174,1.5444433103501798,0.1121832152573741,0.484,0.1649319455564451,0.0,0.0900634952508288,0.1459778542272608,0.0129468441009521,0.2110189221799365,1.6298856890989264,0.0137300954253786,0.1252725822700477,0.4572385489417153,0.7878772553983869,21.0,73.0,5.2,5.732488730306527,6.165900094114808,0.0225143316879252,3.591096948967682,0.0,0.0,0.7142857142857143,0.7615056495247957,0.4227604562693697,0.0152,1.0,0.4227604562693697,0.0,0.8181818181817438,0.5733067363391282,3.828249823881314,20.39158892981829,0.0032025620496397,0.9310621312449509,0.0606434905655189,0.6100325451640846,1.7085158290376856,0.1184947958366693,0.4559294871794871,0.3400796458678831,0.5535070574687685,1.3753611244374218,0.5529017411189999,3.858612300930076,0.2058200856669653,21.0,14.0,23.0,0.5746793994421302,0.0575105130672454,0.0137300954253786,0.36011028191564,0.3684726837731973,0.2378166427624805,0.0198643368970942,0.4988806035900398,0.2493844807185432,0.1729549171639474,0.0741456250431775,0.0046343599496695,-2.6095490771004446,-0.7459563384711806,0.169237404434138,0.5669749624245866,-0.6697885956629426,0.1774913979974412,-0.8128222497622578,1.932958731299149,2.6562902981827383,4.137955783628053,1.4816654854453146,0.8,medium,False,False,ambiguous_boundary,0.4212873320424808,0.935516047644194,good_medium_boundary,0.4212873320424808,0.935516047644194,0.6566825089479552,good_medium_overlap,0.5778806078742006,True,6406,added
14931,train,0,good,105001,105,0.2624732346708928,0.2518535236039898,1.6286334618926046,0.1240356999529489,0.32,0.166533226581265,0.0,0.1193892777159051,0.2551970794863956,0.0141589632257819,0.2306550480425352,1.6290379561036112,0.0132960044173333,0.1403021699976336,0.4878191726437285,0.7959678139043002,22.0,69.0,4.7,5.746486449757549,6.205426080828286,0.0222794058271081,3.5250953196480177,0.0,0.0,0.7857142857142857,0.7818937316955993,0.4917975904437061,0.0152,1.0,0.4917975904437061,0.0,0.9090909090908263,0.5674641035768041,3.8190184091226977,20.73348485323322,0.0032025620496397,0.9576242543914466,0.0634302023146751,0.6324566459445969,1.6572878378847296,0.088871096877502,0.3942307692307692,0.3735518617376074,0.6302979186341774,1.369797967482068,0.557947948917672,2.8284271247461903,0.2612038749637414,22.0,16.0,22.0,0.5031480617010249,0.0653350576758384,0.0132960044173333,0.3212821963959662,0.3946554493450737,0.248208042294689,0.0225023360649255,0.3981895904347637,0.3335518971371343,0.1871425057944581,0.0743221973026924,0.0067937954926602,-2.4150621127787315,-1.169669308104752,0.2627191536064572,-0.2418643783945368,-0.3300405491810875,-0.2105284182079687,-0.1450209384357708,1.085179144348424,2.2101789245669345,3.460354919914342,1.2501759953474076,0.8333333333333334,medium,False,False,ambiguous_boundary,0.3766355688552485,0.9774100803849088,good_medium_boundary,0.3766355688552485,0.9774100803849088,0.6566346887285103,good_medium_overlap,0.5778385260810891,True,6407,added
29042,test,0,good,111001,111,0.2092977378028462,0.2087644233511149,1.2288880456984037,0.1176806638938142,0.2216,0.4067253803042434,0.0,0.3725404305609205,0.8935740648035699,0.0043218545615673,0.0504556640982627,1.1674513020825723,0.2415412099997461,0.1075461773411714,0.4161455058298599,0.7767409674537661,16.0,31.0,1.5,1.783921568540264,8.18874229576351,0.0776251082439741,0.2630978897637205,0.0,0.0,0.3571428571428571,0.6359303173514774,0.2969483774003941,0.0152,0.8603694187293718,0.2800350805484503,0.0,0.6249999999999218,0.6214665636078859,3.9785522888474336,29.239038961035472,0.0120096076861489,0.7733383047446923,0.0435825902818351,0.5141433880068995,2.1138297276763627,0.0232185748598879,0.4270833333333333,0.2035650055217606,0.6864602200848628,1.343480302496134,0.6705892460554335,3.2998316455372216,0.2325672450543258,16.0,13.0,8.0,0.309171118541626,0.0172793600708246,0.2415412099997461,0.2049501862057047,0.3617259492631393,0.1699210531469911,0.0218395215968904,0.7101047066395038,0.1563500299582619,0.0784143640888147,0.0499743178708031,0.0051565646556285,-5.492592870503488,5.4979236323614415,-1.886244071615528,3.488305623204336,-0.8119288465398222,-0.5806063724287259,0.0993640670846396,-0.108692892833763,7.04690201117144,9.281586648116386,2.2346846369449462,1.0,medium,False,False,ambiguous_boundary,0.5863404330223552,0.2137534471630581,good_medium_boundary,0.5863404330223552,0.2137534471630581,0.6566038842926715,good_medium_overlap,0.5778114181775509,True,6408,added
1393,train,0,good,100001,100,0.3052342845772165,0.2937421419222577,1.868226637542248,0.136822764836144,0.348,0.3450760608486789,0.0,0.0891130564749392,0.2409860940058652,0.0083294324576854,0.1307274468243115,1.5694621517397125,0.0219934807138666,0.0860067597600514,0.5281355371005022,0.7763286193818241,23.0,47.0,2.4,1.5417145586823862,6.0391546383106345,0.0894897994609796,0.2307408171638383,0.0,1.0,0.8571428571428571,0.6956051459481452,0.2394806607368781,0.0152,1.0,0.2206703735915268,0.0,0.89999999999991,0.680830164073927,4.056018138485846,21.79757064846472,0.0096076861489191,0.949101454003656,0.086284450066233,0.563477923320279,1.7710342584368295,0.0680544435548438,0.3253205128205128,0.28953729147106,0.6257551285167258,1.2975998794745642,0.8178297121850543,4.96655480858378,0.1676009074049484,23.0,22.0,12.0,0.1459615158235957,0.0517015643417834,0.0219934807138666,0.3249534162598942,0.4555424155401438,0.1898927322616311,0.0075631981981321,0.5784033999616411,0.2691536902705056,0.1111451282434349,0.0381213073298853,0.0031764680730555,-4.6161802241725525,1.430542375976226,2.2143902716705823,4.543627930685905,-0.7755363439740101,-0.3804106264478918,0.5112611101298132,-0.8074552311911916,5.465892204891,7.306001142509975,1.8401089376189743,1.0,medium,False,False,ambiguous_boundary,0.4929883236519392,0.4233996362142815,good_medium_boundary,0.4929883236519392,0.4233996362142815,0.656524672886229,good_medium_overlap,0.5777417121398815,True,6409,added
7935,train,0,good,100001,100,0.3233991970692254,0.313198100455881,2.046970424503088,0.1357800924344803,0.3536,0.1625300240192153,0.0,0.1327596016818262,0.2721892246151263,0.0155863566324114,0.2057787403464317,1.3202482990392368,0.0196966091579074,0.1052728546672246,0.5605941905451317,0.7870444375442845,23.0,74.0,5.1,5.637560383851168,6.172975418218413,0.0249061049217111,3.20756215530694,0.0,1.0,0.8571428571428571,0.7802307036833126,0.5180956721367784,0.0152,1.0,0.474023207292445,0.0,0.9090909090908263,0.6531619055003265,4.452105610783897,24.65170699296397,0.0024019215372297,0.9618843045657848,0.0980930538652102,0.6102337801106237,1.6967028948354537,0.1056845476381104,0.4318910256410256,0.3216777586564723,0.5993023425078793,1.362314354126844,0.5482271949977313,3.39934634239519,0.2273064955953337,23.0,15.0,21.0,0.3293090095008863,0.0619014900177717,0.0196966091579074,0.2788985390461512,0.4660593081166646,0.2230194915213751,0.0123216587719462,0.6484022205138257,0.2146800875778238,0.0912404448143215,0.0423764938752736,0.0033007485259797,-3.3493270926086605,-1.4172561341956926,1.8173830344263748,0.1791792243733509,0.5582360588522964,-0.2108890473641377,-1.1585135051222992,0.6662706354916613,2.925612599655264,4.231528168171702,1.3059155685164383,0.8666666666666667,medium,False,False,ambiguous_boundary,0.3870210643666021,0.8950302176846799,good_medium_boundary,0.3870210643666021,0.8950302176846799,0.6564988558352403,good_medium_overlap,0.5777189931350114,True,6410,added
26094,test,0,good,111001,111,0.2898014010145383,0.2778621896559828,1.7652696489542696,0.1337818430461455,0.328,0.3314651721377101,0.0,0.2926184992567776,0.3087956124667685,0.0069633442908525,0.0740857984870672,1.063938374992501,0.2161077093400123,0.1014047141892776,0.4293968232442552,0.7584774619356984,22.0,46.0,2.4,1.298973370143203,8.258917334162799,0.0957322728159847,0.2159878862367528,0.0,0.0,0.7857142857142857,0.7308803518137319,0.164051481946581,0.0152,0.811237713514221,0.1335417521293307,0.0,0.8571428571427346,0.6379427284594292,5.078903333519368,36.610517282457295,0.0096076861489191,0.8066539037260958,0.0772074008831736,0.5469394043600896,1.9017916488211184,0.0392313851080864,0.3918269230769231,0.2203307314748664,0.6118779436602411,1.340765116829867,0.486318083606949,3.39934634239519,0.2273064955953337,22.0,16.0,14.0,0.1746128587444333,0.028378371708095,0.2161077093400123,0.2241202355555945,0.3717304309413493,0.1709168810980204,0.0171107688503721,0.6063144283374998,0.2303865481162218,0.1028202609720442,0.0569859291391073,0.0034928234288594,-5.257396328005381,3.400698559792884,0.7638602363316928,4.611509034582795,-0.9384011598864804,0.1601975361284698,-0.6214621909757891,-1.4831062777727828,6.250229146012486,8.342387406609408,2.0921582605969222,1.0,medium,False,False,ambiguous_boundary,0.5489643842046588,0.297306812180954,good_medium_boundary,0.5489643842046588,0.297306812180954,0.6564953353282872,good_medium_overlap,0.5777158950888928,True,6411,added
1892,train,0,good,100001,100,0.2237811078417693,0.2198476081327536,1.3286404573917383,0.1404070777139568,0.1432,0.310648518815052,0.0,0.1908524171109517,1.4747992378735075,0.0070593282580375,0.1200416803359979,1.70046647360072,0.0705452633736822,0.096464921952264,0.4860953473604319,0.8040951364421798,21.0,48.0,2.7,4.466824874897871,5.532671738331173,0.0253927423398763,3.3043358653316885,0.0,0.0,0.7142857142857143,0.7095465984589895,0.5868385916653239,0.0152,0.7717193756181122,0.5868385916653239,0.0,0.8333333333332639,0.6547073748408834,2.6109915821699508,12.87741510209961,0.010408326661329,0.8979995543148359,0.0483329764047407,0.5198163733710938,1.9592166647333809,0.0456365092073658,0.3309294871794871,0.345361035644609,0.7543479083429662,1.288257950470424,0.7725363888021988,3.858612300930076,0.2058200856669653,21.0,19.0,12.0,0.392036171172805,0.0446927029639482,0.0705452633736822,0.3156162062022749,0.4141305041665395,0.1897149177984343,0.0099866618856544,0.5714881945314451,0.2316579156051409,0.1471996021082929,0.0461283960014859,0.0035258752741559,-4.144340791297056,2.7250617143593163,-1.0553234897694097,-0.0350298787896919,0.6031845548640241,-3.7049553430802846,1.3950983909572034,-1.299878476537347,5.183501631526592,6.913602476165855,1.7301008446392636,1.0,medium,False,False,ambiguous_boundary,0.4718652819339318,0.4707504547321481,good_medium_boundary,0.4718652819339318,0.4707504547321481,0.6564894678166989,good_medium_overlap,0.577710731678695,True,6412,added
612,train,0,good,100001,100,0.3003868474580507,0.2873158455913268,1.7771399736404412,0.1357610175053123,0.3672,0.0832666132906325,0.0,0.1085826198987047,0.3945811830292687,0.0218484289944171,0.1485363360494373,0.6798487346734106,0.006590089244238,0.0918692367802029,0.5169537045130775,0.802077849410468,21.0,80.0,5.9,5.660750729240923,6.367945493752315,0.0253981989925132,3.275720932066841,0.0,0.0,0.7142857142857143,0.7194587378258509,0.4241081246095942,0.0152,1.0,0.2762888323519483,0.0,0.9090909090908263,0.6685948882277382,4.028825280302125,21.840333346707165,0.0,0.9553159398088036,0.0825503993815423,0.5763303080009015,1.8106494177086017,0.1577261809447558,0.5552884615384616,0.3640312912309014,0.6359844842859081,1.3518344238699485,0.5562235647034668,3.39934634239519,0.2273064955953337,21.0,15.0,23.0,0.4297084188329896,0.0670096866786479,0.006590089244238,0.3547116754889642,0.4440777841168654,0.1830238277818472,0.0115484296528776,0.4589461316334315,0.3099269146992294,0.1684201660858881,0.0584083133446268,0.004298464546958,-2.8757416452253426,-1.1041316590978036,1.3257820930893762,0.0199058935187372,-0.3172564140368746,-0.6224723104318589,-2.515532152720056,0.1565074086305724,3.388422137847809,4.293334645559956,0.904912507712146,1.0,medium,False,False,ambiguous_boundary,0.3212462594613624,0.8092471982632166,good_medium_boundary,0.3212462594613624,0.8092471982632166,0.6564102564102564,good_medium_overlap,0.5776410256410256,True,6413,added
30086,test,0,good,111001,111,0.3233991968654708,0.3190209352095464,2.4191132812947025,0.0935780749893863,0.5208,0.4283426741393114,0.0,0.4036111226069633,0.4102703878164685,0.0055797672830522,0.0610599771142005,1.0943085004425115,0.084981653348698,0.1599299775872467,0.5240360896488849,0.8367112495810329,21.0,44.0,2.3,0.4240479203034871,8.774926906106217,0.0638706745608331,0.0655794155911653,0.0,0.0,0.7142857142857143,0.6672714126246021,0.0673383072665398,0.0152,1.0,0.0673383072665398,0.0,0.8749999999998906,0.5844406508757889,7.049564403057317,55.98844641748725,0.0056044835868694,0.9305164414817048,0.101774360721555,0.6685349197775315,1.653438114455573,0.0488390712570056,0.4807692307692308,0.1584892349638728,0.4230188930402959,1.440363809051837,0.5045430576965039,2.8284271247461903,0.2612038749637414,21.0,15.0,15.0,0.1089911941151055,0.0206860813545062,0.084981653348698,0.1869900146246971,0.440279921021855,0.2546551890266156,0.0330841190393902,0.3590003203529473,0.2977847875240377,0.2615967755196049,0.0726608856436986,0.008957221349154,-5.21217859566989,0.0149045988102477,0.954462350675774,5.757246770965061,-1.572986482708155,3.33047011653964,-1.2307560476432031,1.1452937208908631,7.098437516641852,9.33696978417861,2.2385322675367583,1.0,medium,False,False,ambiguous_boundary,0.5872792348764889,0.2106436660212404,good_medium_boundary,0.5872792348764889,0.2106436660212404,0.656404388898668,good_medium_overlap,0.5776358622308279,True,6414,added
26050,test,0,good,111001,111,0.2777869418663802,0.2695188473059832,1.8431148515641669,0.1308134078938048,0.2992,0.289031224979984,0.0,0.2655331193429167,0.5449773162966932,0.0076372623443603,0.0747207120060919,0.9783690909133088,0.2276793199807474,0.1059401744480119,0.433617979140635,0.7227252024553481,21.0,49.0,2.8,1.3037187972134694,7.787316965878539,0.0958362799427354,0.2158759345961954,0.0,0.0,0.7142857142857143,0.6993247086254559,0.1487673447935168,0.0152,0.8475213955840952,0.1234427639679492,0.0,0.8749999999998906,0.6342382616212969,4.816070584527156,33.23995888114081,0.0120096076861489,0.8181062265860211,0.072640413662769,0.5589088416186334,1.8730672057337416,0.0456365092073658,0.3862179487179487,0.2054390984331639,0.6368197776159712,1.3539084723823804,0.6192555619113086,2.494438257849294,0.286169028098801,21.0,17.0,15.0,0.2309263376208632,0.0314688669517635,0.2276793199807474,0.2031649684139642,0.3727675152903231,0.1777911790272327,0.0184998365537919,0.5315366947748446,0.2884297451223556,0.120306377347671,0.0560656695544785,0.0036615020037112,-4.913476426529095,3.46146981405221,0.5018694833100149,3.95821728655985,-1.2415537765976608,0.4475293317479599,-0.6594126144897031,-1.3410498851236816,5.796958980260039,7.755614825107418,1.95865584484738,1.0,medium,False,False,ambiguous_boundary,0.5173971718594145,0.3677169512409787,good_medium_boundary,0.5173971718594145,0.3677169512409787,0.6563721175849323,good_medium_overlap,0.5776074634747405,True,6415,added
31475,train,0,good,118001,118,0.2395561558566757,0.2340823571097522,1.4788483236730097,0.1197528727723751,0.252,0.3370696557245796,0.0,0.0854811468029271,0.2788481257317896,0.0064454525709152,0.1235974133014665,1.9175879456533145,0.009944014353731,0.1516808585958784,0.5260531619483817,0.8306821591594091,23.0,41.0,1.8,2.05440254385309,6.867558992346599,0.0697345281684702,0.3677083967898357,0.0,1.0,0.8571428571428571,0.7954020139893553,0.3859731978959704,0.0152,1.0,0.3859731978959704,0.0,0.9090909090908263,0.580397201002934,3.951175003374919,23.060481302214008,0.0152121697357886,0.9634695607030792,0.0547945552284105,0.636059538769645,1.6844011862833297,0.0488390712570056,0.3165064102564102,0.3104281997759397,0.6716046751867221,1.3778537698232232,0.809426083227565,3.858612300930076,0.2058200856669653,23.0,21.0,14.0,0.1952785937394251,0.0324852976948022,0.009944014353731,0.2676278339601805,0.4376525067899699,0.2583118369808954,0.0264366994536748,0.4282444183302967,0.315322832188294,0.1568068546468993,0.0923029991298493,0.0073228794072549,-3.3291335495609204,1.0503866248755669,0.7757473988824949,3.518299522584236,-1.3344180416553593,0.0536810537518944,2.623433697788129,0.2101264334626938,4.7346030015282965,6.305286838197502,1.5706838366692055,1.0,medium,False,False,ambiguous_boundary,0.4384204658804201,0.5446224256292906,good_medium_boundary,0.4384204658804201,0.5446224256292906,0.656213694772047,good_medium_overlap,0.5774680513994014,True,6416,added
2414,train,0,good,100001,100,0.2795193255229937,0.266889928450275,1.6968096425384285,0.1237655083877674,0.3824,0.3923138510808647,0.0,0.0522701776791029,0.2324648821334204,0.006436001509428,0.0943786871619521,1.4664157611231452,0.0225436267573295,0.0844476905978422,0.4996491767665771,0.7881635880089126,23.0,47.0,2.4,1.713272217918291,6.275884209875282,0.0973394805996172,0.2642016491815075,0.0,1.0,0.8571428571428571,0.7168556454519557,0.2517750156646829,0.0152,1.0,0.2210980381785802,0.0,0.89999999999991,0.6751666881588969,4.046476307881861,22.14239754928982,0.0096076861489191,0.926314159281667,0.0712302385703944,0.5573422106097851,1.8149734740988737,0.0568454763811048,0.3669871794871794,0.3097093241662083,0.627041023994312,1.2805466201292226,0.7241780715811433,3.299831645537222,0.2325672450543257,23.0,20.0,15.0,0.1209529915940685,0.0423355490900576,0.0225436267573295,0.358284025405441,0.4289320462613048,0.1816561012095334,0.0085512523640421,0.4910718635610794,0.2501670170737992,0.2254402572690305,0.0291455328322365,0.0041753179524746,-4.169318904847295,1.4833695234821729,1.4603760115536082,4.549705816680128,-1.808603351470248,0.3076464810080327,0.4178460019610114,-0.2388300368199968,5.33482094903488,7.115350245618755,1.7805292965838753,1.0,medium,False,False,ambiguous_boundary,0.4817813765182186,0.4468110074517397,good_medium_boundary,0.4817813765182186,0.4468110074517397,0.6561638209235464,good_medium_overlap,0.5774241624127209,True,6417,added
26110,test,0,good,111001,111,0.251523117500794,0.2461622042798436,1.506609009951353,0.1247939024435589,0.2704,0.2802241793434747,0.0,0.1790825538103147,0.3506055070053431,0.0080849789083004,0.0696491293609141,0.8614622747275431,0.1822142433104312,0.1117714017034464,0.460263687121457,0.8047072931240561,22.0,47.0,2.5,1.4641595059283692,7.3275094087302035,0.0513721422799646,0.2303826425140403,0.0,0.0,0.7857142857142857,0.7095726068683645,0.1925427007807205,0.0152,0.8941712136275716,0.1520127277415044,0.0,0.8888888888887901,0.6366851447686098,4.394015966168673,28.758072024565426,0.0072057646116893,0.8449456634382886,0.0605958358926675,0.5468204580323475,1.920849475912178,0.0504403522818254,0.3894230769230769,0.2409846451474425,0.6511488523732262,1.373319115557715,0.6545733814569579,3.265986323710904,0.2344123783149211,22.0,18.0,14.0,0.2366532222669961,0.0305797290056943,0.1822142433104312,0.2113403362815668,0.398348474390859,0.1881743291205882,0.0198372854600889,0.6694824284403619,0.1770165332828724,0.1101924977021532,0.0392722253630945,0.0040363054181192,-4.071733418181988,3.2366003032472688,0.5644155241014157,3.176342043454685,-1.3284357056019445,-0.2106818379978617,-0.2718630929938485,-0.5992697171634458,4.906277613514207,6.535485592294307,1.6292079787801006,1.0,medium,False,False,ambiguous_boundary,0.4508009153318077,0.5165170451211641,good_medium_boundary,0.4508009153318077,0.5165170451211641,0.6561638209235463,good_medium_overlap,0.5774241624127208,True,6418,added
17530,train,0,good,105001,105,0.3062804388199752,0.2918954349069574,1.8520728687942016,0.1361764976352918,0.3984,0.176941553242594,0.0,0.1204029332530845,0.2758346366722181,0.0178487137891352,0.3045829318463787,1.7064689635221026,0.0039708144306347,0.1544316176021961,0.5615372602960583,0.8035470881095161,24.0,65.0,4.1,5.750665449066204,6.391879417091571,0.0213948978428743,3.460226712039697,0.0,1.0,0.9285714285714286,0.7497740369677914,0.6331790041466351,0.0152,1.0,0.6331790041466351,0.0,0.923076923076852,0.5788910092106461,3.9978304124723287,21.727579673086456,0.0016012810248198,0.9849316341445038,0.0852029490816132,0.659019383728337,1.6054744694580996,0.1273018414731785,0.3846153846153846,0.3751466015971315,0.6005242432775515,1.3644364932201376,0.6145620989998012,3.0912061651652345,0.2444266946297027,24.0,17.0,23.0,0.4888987264846116,0.0781278505921363,0.0039708144306347,0.2365141127837824,0.469779877327708,0.2632215552156481,0.026494732356306,0.341456532193593,0.3752907218189531,0.2248946609255829,0.0521943302028622,0.0061637448930583,-2.4955937203105374,-2.5579048007816283,1.4617368676320148,0.1770018563410382,1.0988070735360222,-0.2108303983124022,0.2617396330531412,1.0962754860365351,3.5338571283604514,4.523822724873216,0.9899655965127644,1.0,medium,False,False,ambiguous_boundary,0.3334506835651,0.7804963914803732,good_medium_boundary,0.3334506835651,0.7804963914803732,0.6561520859003697,good_medium_overlap,0.5774138355923253,True,6419,added
3592,train,0,good,100001,100,0.3233991967230739,0.3150511183947846,2.0431531904637814,0.1472673116644378,0.2744,0.2145716573258607,0.0,0.1731048023129074,0.4123268425935988,0.0140317566692829,0.3246519476175302,2.3136926038560004,0.0076526027373108,0.1277063421567064,0.6378655385513964,0.8163222092287759,24.0,64.0,4.0,5.724091087989136,6.295859527170093,0.0242156623876744,3.5598037115626813,0.0,1.0,0.9285714285714286,0.7438117579289955,0.7302400889114877,0.0152,1.0,0.7302400889114877,0.0,0.923076923076852,0.6249731589325566,4.245104909423067,23.13067805368137,0.0056044835868694,0.978002925702458,0.0992572109007823,0.6362209568969581,1.6428563676027022,0.0816653322658126,0.3766025641025641,0.3454494483887449,0.6551878257491934,1.3413289369192452,0.5864610919425058,2.494438257849294,0.286169028098801,24.0,18.0,22.0,0.3242650499206923,0.0793908718973398,0.0076526027373108,0.1867605185903198,0.5299248769486307,0.2596336708416349,0.0159995308219871,0.323292680241714,0.3894505465249836,0.1826835553975264,0.0963246713301379,0.0082485370010825,-3.0856069739393392,-2.6826324295826143,1.3962395389840452,-0.2757104526590481,2.0083627455639603,-0.4521947405490686,0.424027494104633,0.2212445827444719,3.7042350069250567,5.091674038869647,1.3874390319445906,0.9333333333333332,medium,False,False,ambiguous_boundary,0.4021005691486241,0.7425922666197265,good_medium_boundary,0.4021005691486241,0.7425922666197265,0.6561303761074928,good_medium_overlap,0.5773947309745937,True,6420,added
2381,train,0,good,100001,100,0.2896926713916582,0.2756416481828965,1.7164974592626094,0.1223354184272902,0.4392,0.388310648518815,0.0,0.0331328565237326,0.2077537736219402,0.0064804330468177,0.1083375845104445,1.6717620034272762,0.0336326254569094,0.0833229255647576,0.4904132400725544,0.7860474884313345,23.0,46.0,2.3,1.7354731492727815,6.255839727392987,0.0969123758704572,0.2665822845305506,0.0,1.0,0.8571428571428571,0.7045744015240079,0.2579087909678135,0.0152,1.0,0.243116778817629,0.0,0.89999999999991,0.6731166390030275,4.1244996462612,22.637621280418383,0.0168134507606084,0.9274056043338946,0.0759783227001508,0.5600943117669093,1.8050896234053235,0.0672538030424339,0.3637820512820512,0.2741859676573432,0.5794666425329288,1.297355690330838,0.6830416979331847,5.0990195135927845,0.1639607805437114,23.0,20.0,11.0,0.1026655720605304,0.0406787340529263,0.0336326254569094,0.356471382838995,0.4218396804102279,0.1795339617563756,0.0083765671419074,0.5497549294825705,0.2830069364915811,0.0991361227315868,0.0648487560287214,0.0032532469075743,-4.866558159850634,1.818342761311426,1.6028486962221755,5.374443926609934,-1.1522732037398205,0.1659149698611986,0.6922048240076439,0.097969925107653,6.081583847421369,8.124204961837235,2.0426211144158657,1.0,medium,False,False,ambiguous_boundary,0.5374053863756381,0.3209528838819456,good_medium_boundary,0.5374053863756381,0.3209528838819456,0.6560230006454263,good_medium_overlap,0.5773002405679751,True,6421,added
28181,test,0,good,111001,111,0.2393571712462675,0.236248949504305,1.503328234553337,0.1537846555979456,0.0872,0.3610888710968775,0.0,0.2525832569492353,0.4336137754285077,0.0055926740169525,0.0676933258771896,1.2103906759616303,0.0810808394145753,0.1224702361341684,0.5041825469516185,0.8143943910102935,21.0,35.0,1.4,1.054948086093678,7.032798852061029,0.0577401703094728,0.1515370098417076,0.0,0.0,0.7142857142857143,0.7717968501875606,0.2216193387285191,0.0152,0.9797618890733476,0.2136645241943152,0.0,0.7777777777776913,0.6217299534774494,3.2647584764221267,20.17856861680765,0.0144115292233787,0.9349193074764314,0.0558135714169087,0.5113562483257128,2.115819886701156,0.0240192153722978,0.3709935897435897,0.2846408990155309,0.7193721520190889,1.3582794253542183,0.7003973822093207,4.642796092394706,0.1772171071975803,21.0,18.0,10.0,0.4059864779750604,0.0288490854203701,0.0810808394145753,0.2572455052625347,0.4344815786096607,0.2033065906899493,0.0238757470950045,0.641754764208425,0.1934286880659888,0.1140701382798663,0.0476475288172227,0.0030988661297021,-4.03766239406509,3.3796181792951123,0.3895953654025483,2.6717912778141373,-0.1395435171429321,-1.3222503335749296,1.0138178944131175,-1.6521227651364263,4.991909356439038,6.6510477384767634,1.6591383820377257,1.0,medium,False,False,ambiguous_boundary,0.4570204776154433,0.5015548905709089,good_medium_boundary,0.4570204776154433,0.5015548905709089,0.6559701930411312,good_medium_overlap,0.5772537698761955,True,6422,added
4375,train,0,good,100001,100,0.3226987437722103,0.3116595623631159,2.0301923771202564,0.1579708719742659,0.1744,0.2353883106485188,0.0,0.1700794206560513,0.6026937083101884,0.0115691199898719,0.3037950873374929,2.625911262155804,0.0113766315759956,0.1218161591734579,0.6530456092363751,0.8163441019784169,24.0,54.0,3.0,5.53428844941622,6.025169763619811,0.0249341645380573,3.767293036379288,0.0,1.0,0.9285714285714286,0.8067256186733983,0.9035356930347124,0.0152,1.0,0.9035356930347124,0.0,0.8461538461537811,0.6374157784873029,4.023261025189103,21.5554145657064,0.0048038430744595,0.983581576329312,0.0971316865791777,0.6273306004922822,1.6707708201212297,0.0544435548438751,0.3309294871794871,0.3175925840344563,0.6803321169512131,1.3265913542919736,0.6245901303936519,3.0912061651652345,0.2444266946297027,24.0,17.0,18.0,0.347433544720411,0.0680891366675495,0.0113766315759956,0.1659205505959947,0.5570830128584431,0.2489275509765344,0.0165243590759126,0.3367898189575543,0.4104893681657415,0.1703161603843176,0.0757124212442881,0.0066922223439327,-3.619339701280009,-2.477956762387864,1.024252187831801,-0.7557690135165331,2.771798735255856,-1.2822254866737512,1.3061272465146596,-0.1738009600092132,4.273149554017027,5.91092437366689,1.637774819649863,0.9333333333333332,medium,False,False,ambiguous_boundary,0.4527371941559585,0.627765064836003,good_medium_boundary,0.4527371941559585,0.627765064836003,0.6559514170040485,good_medium_overlap,0.5772372469635626,True,6423,added
28186,test,0,good,111001,111,0.22423031170201,0.2188810971266722,1.4183353529870506,0.1186289601875094,0.1808,0.400320256204964,0.0,0.3766182960676082,0.3844379867385507,0.0044102109968662,0.0581216724589465,1.3178857136693631,0.1889425220593954,0.1033339129535358,0.4215149294052186,0.7740841022842399,19.0,32.0,1.3,1.7545184693360822,7.833414100478415,0.0946387584150893,0.2383015425714744,0.0,0.0,0.5714285714285714,0.6652822046110413,0.3215459690184135,0.0152,0.8266713036282871,0.2956443962060606,0.0,0.8333333333331945,0.6328580569879113,4.359051285872852,30.406977709516006,0.0056044835868694,0.7781689169152356,0.0479089403017538,0.5380379176488728,2.0261389087800605,0.0208166533226581,0.4447115384615384,0.20515138962522,0.6612474104029666,1.3713185517564046,0.5412856890484731,2.943920288775949,0.2535548202751237,19.0,14.0,12.0,0.2496345756698178,0.0162598712369799,0.1889425220593954,0.2548351880189086,0.365659005950319,0.1690247909745084,0.0215113132724652,0.7972302058613897,0.0805655060681057,0.09472840373483,0.025584459169482,0.0018914167545824,-5.181761130191209,4.76530511505618,-1.079269807051366,4.021763866758104,-1.287198582953721,-0.6839752377934323,0.2120546633406984,-0.4700270839223703,6.637355121425281,8.809079837894108,2.171724716468828,1.0,medium,False,False,ambiguous_boundary,0.569559349879716,0.2481957401865868,good_medium_boundary,0.569559349879716,0.2481957401865868,0.6559408554831896,good_medium_overlap,0.5772279528252069,True,6424,added
28549,test,0,good,111001,111,0.2196642120395938,0.216190783382135,1.278971937000751,0.1142631983534491,0.2888,0.4131305044035228,0.0,0.3781372453482345,0.7351446600888747,0.004145011305809,0.053814274072647,1.2982870316548023,0.2514747261195212,0.1001665966614582,0.4032382034080895,0.7214033098592965,18.0,33.0,1.5,1.8574612802411083,7.884975495969869,0.0960049595742921,0.2738676453986882,0.0,0.0,0.5,0.6695005856553075,0.2995997398178057,0.0152,0.8013327732916663,0.2818735391425376,0.0,0.8571428571427346,0.6280781390958249,4.223108249792665,28.52214350772298,0.0200160128102481,0.7767484200349327,0.0467384604955656,0.5293172007279603,2.02054757039531,0.032826261008807,0.4174679487179487,0.1923820816333959,0.6930824375815753,1.3418259509251784,0.6344590825419154,2.494438257849294,0.286169028098801,18.0,14.0,12.0,0.2400440791020132,0.0179210864007473,0.2514747261195212,0.2172705277804464,0.3466503849011254,0.1648937400289398,0.0196821569687495,0.5961572293337994,0.2476892985597238,0.105459249985191,0.0461395270664325,0.0045546781669809,-5.5825500349711,5.3601136029664,-1.7589887329966143,4.040779688558471,-1.2096905346294038,-0.112777738999647,0.4819244131822186,-0.5179504572250195,7.27403030773964,9.526417698931915,2.2523873911922774,1.0,medium,False,False,ambiguous_boundary,0.5901543155547733,0.2015490230593205,good_medium_boundary,0.5901543155547733,0.2015490230593205,0.655879246611512,good_medium_overlap,0.5771737370181306,True,6425,added
26065,test,0,good,111001,111,0.2808396042792789,0.2724683040829571,1.8191887010633936,0.1321302303650416,0.3064,0.3242594075260208,0.0,0.2444830626895233,0.419544214214146,0.0067178830504417,0.0750401973724364,1.117019827630362,0.2052129096197723,0.1063805513290243,0.4355957911145184,0.775778764618786,22.0,45.0,2.3,1.285700682421013,7.632688118331915,0.0983765308601902,0.1817268186673434,0.0,0.0,0.7857142857142857,0.7192766485517722,0.1697108502714113,0.0152,0.8510444106321947,0.1468721772119908,0.0,0.8749999999998906,0.6368162254966389,4.834619658003494,33.004388127659084,0.0088070456365092,0.8074356371781505,0.0742389812804767,0.5486790326928486,1.907553269393072,0.0392313851080864,0.3870192307692308,0.2198443996062909,0.6280993147224795,1.3528637285096994,0.455782477128041,3.0912061651652345,0.2444266946297027,22.0,15.0,16.0,0.1903272247401438,0.0249277792870998,0.2052129096197723,0.2243561761389081,0.3776735560206753,0.1745133838982823,0.0181793438117576,0.5689680935430591,0.2323091078964636,0.1483121183450582,0.0474160059925213,0.0029946633134859,-4.915532455716695,3.3125012371938096,0.771705628008775,4.356844609939143,-1.0046079151143057,0.2551123826883233,-0.5542415859525358,-1.1599863229666227,5.892835686583021,7.879130405479425,1.986294718896404,1.0,medium,False,False,ambiguous_boundary,0.5235580590271666,0.3512879187936396,good_medium_boundary,0.5235580590271666,0.3512879187936396,0.6558587103209529,good_medium_overlap,0.5771556650824385,True,6426,added
5339,train,0,good,100001,100,0.323399197125566,0.3187967698349581,2.0597041639685627,0.1542024582335638,0.2104,0.2137710168134507,0.0,0.1542510160562634,0.4208513273404407,0.0141880698502063,0.333205559104681,2.348489454687093,0.0070572702016519,0.1404572690285533,0.6008216860353651,0.8337922114255462,23.0,64.0,4.1,5.562687090394751,6.076136147822485,0.0235185869581414,3.676223899002901,0.0,1.0,0.8571428571428571,0.7243923907786898,0.65533000716434,0.0152,1.0,0.65533000716434,0.0,0.8571428571427959,0.6272507311358455,4.126113629494462,22.206643425029853,0.0056044835868694,0.9844108014159436,0.1016313840812679,0.6373704648398443,1.7053860699851493,0.077662129703763,0.4118589743589743,0.3565260382639463,0.6562194364572757,1.3723241847900958,0.5850844817942831,2.0548046676563256,0.3273531727209285,23.0,18.0,20.0,0.3085818584745033,0.0632858596742153,0.0070572702016519,0.2119231789766705,0.5064589985892818,0.2509971619874678,0.0235583862081746,0.4279667611025202,0.3111991686309326,0.2080976733795437,0.0459306881395983,0.0068057015548619,-3.0442272424511176,-2.435758927787023,1.1581894300153324,-0.569442706535332,1.942638965364029,-0.5899230460407808,0.2311159785061908,-0.1766063620666605,3.471538210771695,4.86891012990334,1.3973719191316452,0.9,medium,False,False,ambiguous_boundary,0.4043888986680748,0.7943437188288447,good_medium_boundary,0.4043888986680748,0.7943437188288447,0.6558437481664027,good_medium_overlap,0.5771424983864344,True,6427,added
16880,train,0,good,105001,105,0.3233991946149037,0.3095991011770574,2.0300188113749025,0.1448364482419027,0.3912,0.132906325060048,0.0,0.1339238650674793,0.1139548984477509,0.0201132763177156,0.4524306118488306,2.2494116809262183,0.0019904001608698,0.176946190892347,0.5412724965655462,0.8008736917787345,22.0,68.0,4.6,5.60224930736834,6.339938683198587,0.0207286654315237,3.767144641334992,0.0,0.0,0.7857142857142857,0.730249584673924,0.5414899051753328,0.0152,1.0,0.5414899051753328,0.0,0.9285714285713622,0.5662555910855684,3.97864686986012,21.378827348907304,0.0048038430744595,0.99465796236068,0.0958516072576599,0.7033145324387949,1.5481921085462356,0.1289031224979984,0.3958333333333333,0.3843535027027375,0.6017754713370963,1.3936792293098452,0.6905462816410491,3.265986323710904,0.2344123783149211,22.0,18.0,26.0,0.3597490843590766,0.073541886731982,0.0019904001608698,0.2236143947788818,0.446524332686303,0.2938166601085816,0.0340173390758872,0.3142633728443288,0.3404944101745918,0.2323098569147373,0.1027401536442414,0.0101921964173831,-2.4568783072459373,-3.1789356404369844,0.9817681618331248,0.0190179608956867,1.521598388095434,0.1045239019392226,0.1845179807894561,0.3760024475066015,3.755333539681671,5.019708708239584,1.2643751685579128,0.9666666666666668,medium,False,False,ambiguous_boundary,0.3795693246494162,0.7334976236578067,good_medium_boundary,0.3795693246494162,0.7334976236578067,0.6558390541571321,good_medium_overlap,0.5771383676582762,True,6428,added
30078,test,0,good,111001,111,0.3233991982861895,0.3196882716634835,2.259631392806768,0.1059297727811668,0.3912,0.3907125700560448,0.0,0.2716581993572559,0.43479706081531,0.0062478333711624,0.0711796912364659,1.1392681763599164,0.0545694714769472,0.1648998064965742,0.5204508354712617,0.855849469307797,21.0,50.0,2.9,0.5344813369697764,8.581407335327036,0.1030742340398337,0.0764053151118318,0.0,0.0,0.7142857142857143,0.7050828776725251,0.0713259636845428,0.0152,1.0,0.0713259636845428,0.0,0.8888888888887901,0.5757671380910172,6.559279655412917,50.01735163181273,0.0088070456365092,0.946629803451555,0.1022005946454199,0.6734092145481827,1.6569797030660511,0.0560448358686949,0.4655448717948718,0.1509570287111732,0.4698276517489667,1.452725248461535,0.5855758789329004,2.943920288775949,0.2535548202751237,21.0,16.0,14.0,0.1323623432818798,0.0356555804610252,0.0545694714769472,0.2132504676060992,0.4344569188282246,0.2618797738113108,0.0357661815510899,0.409598237451632,0.235229185953256,0.2551538032048475,0.0903588907477542,0.0096598726871217,-4.861689133903106,0.1905889895658226,1.0524794259853292,5.822806424123935,-1.8557410374544687,2.654061910772392,-0.5635532151889688,0.2172670257051688,6.70814246629875,8.890562750758916,2.182420284460165,1.0,medium,False,False,ambiguous_boundary,0.5723170803262336,0.2412134013964677,good_medium_boundary,0.5723170803262336,0.2412134013964677,0.6557853664260986,good_medium_overlap,0.5770911224549669,True,6429,added
31500,train,0,good,118001,118,0.2460921983806771,0.2374632884026035,1.504586058109998,0.1117380394608364,0.3496,0.3466773418734988,0.0,0.0225586852501101,0.2393384526281621,0.0063320398330688,0.1066475093364709,1.6842493686564048,0.0148750774427886,0.138923702291027,0.5022488546075373,0.7802219985900906,23.0,41.0,1.8,2.017636894765011,7.064234267851899,0.0813024864931439,0.3274292642882348,0.0,1.0,0.8571428571428571,0.7584290319544696,0.3619127926462983,0.0152,1.0,0.3619127926462983,0.0,0.79999999999992,0.5849219653874946,4.196479334758761,25.12997438301391,0.0168134507606084,0.9577940622149204,0.0563888185897124,0.6287188879381311,1.6893615304013905,0.0696557245796637,0.3269230769230769,0.2897169836901629,0.6134429014992153,1.363909253393391,0.7070599928680297,4.189935029992178,0.1926806393955007,23.0,20.0,13.0,0.1291743012913012,0.0317713510245084,0.0148750774427886,0.3042932662213531,0.4208760078804196,0.2353692606842824,0.0245137069322137,0.4668911403899753,0.2030646849020407,0.2660582746107898,0.0563334396162845,0.0076524443807877,-3.5371819825487867,1.1739838219914396,0.5648268914585653,4.74816920409721,-1.493762553428208,0.3214110431350727,2.0515683928405064,0.7616583465738117,5.460845019122283,7.290678385927547,1.8298333668052635,1.0,medium,False,False,ambiguous_boundary,0.4909933697119051,0.4241624127207651,good_medium_boundary,0.4909933697119051,0.4241624127207651,0.6557794989145103,good_medium_overlap,0.577085959044769,True,6430,added
4789,train,0,good,100001,100,0.3233991967595433,0.3172314385650422,1.96350784689188,0.1374792521087918,0.328,0.2145716573258607,0.0,0.1492044477555167,0.4510628252350225,0.0125511824153363,0.4193978995084762,3.341498445964478,0.0282069465607455,0.1266497143069574,0.6150478805841398,0.8240530309849126,23.0,62.0,3.9,5.536177781958542,5.992644118142412,0.0236068348095168,3.785139649936066,0.0,1.0,0.8571428571428571,0.746886205508596,0.6949009002715522,0.0152,1.0,0.6949009002715522,0.0,0.9333333333332712,0.6368372537355492,4.24542860563986,22.183027376492028,0.0032025620496397,0.9782736946285728,0.1006357892694174,0.6510825567526288,1.6319025482670713,0.0904723779023218,0.3453525641025641,0.3285477489815624,0.6225473116539362,1.3499795027486352,0.6410858144650148,2.160246899469287,0.3164309725825327,23.0,18.0,22.0,0.239701577477234,0.0613535486161708,0.0282069465607455,0.1918779008028596,0.5142977542019979,0.248831834041281,0.0167333603880072,0.2902640869399903,0.3657712980886503,0.2545952189583053,0.0809880409187679,0.0083813453745581,-3.1425209907018625,-2.8655839665173084,1.0749727224035008,-0.3410211686517231,1.7151524896427666,0.227707279568034,0.9372569319488564,0.5133538397592999,3.670385783560584,5.164457732826027,1.4940719492654435,0.9,medium,False,False,ambiguous_boundary,0.4242797629525318,0.7491052044827788,good_medium_boundary,0.4242797629525318,0.7491052044827788,0.6557469342251951,good_medium_overlap,0.5770573021181717,True,6431,added
31050,val,0,good,114001,114,0.3233992001697601,0.3158623076753233,2.204505666941404,0.1282762065905146,0.404,0.2457966373098478,0.0,0.1587756750209771,0.1397435567017431,0.011416807770729,0.3256454192101949,2.8523308836994743,0.0009270273485661,0.207303741851533,0.5831703029110857,0.8382478251633572,24.0,56.0,3.2,6.468839167530785,7.157739978482813,0.0188006166798089,4.276536152869462,0.0,1.0,0.9285714285714286,0.7715420972033323,0.8981987849552436,0.0152,1.0,0.8981987849552436,0.0,0.9999999999999232,0.5203746287379841,5.046321324159292,31.94417275213079,0.0016012810248198,0.9938495393135977,0.0997690010927345,0.7726951309648965,1.5219061921518973,0.076861489191353,0.265224358974359,0.2530628153267637,0.5498138482556333,1.426583046305914,0.6617996467133465,2.6246692913372702,0.275887238151612,24.0,23.0,18.0,0.2997252631178552,0.0452747986419126,0.0009270273485661,0.1477184905192202,0.4747719304140988,0.3335310862670857,0.0428952461247007,0.3273890042899949,0.2840946673310059,0.2536038312706422,0.1184956594892062,0.0164168272844999,-3.1702831939006915,-4.20370791340224,0.3640590146483869,0.5093120275051732,2.008543003774652,0.5564792987221284,2.001622443979625,2.0217077544834576,5.303935889595903,7.071404076168692,1.7674681865727893,1.0,medium,False,False,ambiguous_boundary,0.4786715953764008,0.4516810420700581,good_medium_boundary,0.4786715953764008,0.4516810420700581,0.655738426333392,good_medium_overlap,0.5770498151733849,True,6432,added
579,train,0,good,100001,100,0.3146497598898276,0.3010921858319624,1.806352556049824,0.1457500069904177,0.3136,0.1080864691753402,0.0,0.1145063838969869,0.2530518557554806,0.0211826488375663,0.2622092008590693,1.23784838754073,0.0043588685414933,0.0961795426619345,0.5327302615347685,0.7737327320983195,21.0,80.0,5.9,5.364989436293195,5.844173973555338,0.0251169117313511,3.398001055402687,0.0,0.0,0.7142857142857143,0.7354983240027773,0.4142162645692382,0.0152,1.0,0.3510432402247359,0.0,0.8461538461537811,0.6697050287716139,3.801239231161124,19.286645953212947,0.0008006405124099,0.9734732337144744,0.0906565083472253,0.5919859060399209,1.7829018879637435,0.1080864691753402,0.5416666666666666,0.3821166386904668,0.6434435033469929,1.3407927758456464,0.5779698608512274,3.858612300930076,0.2058200856669653,21.0,14.0,23.0,0.3766937045025523,0.0691751897335051,0.0043588685414933,0.3303863508964549,0.4586458958091476,0.1952586939045648,0.0113004421411423,0.3703214285603796,0.4245891655598172,0.1279590539990064,0.0707807315357045,0.0063496114148781,-2.919496794808941,-1.6172713048280132,1.605835804982528,-0.2302014670586394,0.424848092257147,-0.7769690493837673,-2.0125035446699244,-0.4936042522978442,3.4320028624629604,4.348041987863182,0.9160391254002214,1.0,medium,False,False,ambiguous_boundary,0.3228891627060963,0.8019128087777974,good_medium_boundary,0.3228891627060963,0.8019128087777974,0.6556826849733028,good_medium_overlap,0.5770007627765065,True,6433,added
8927,val,0,good,103003,103,0.3189350392367169,0.3061467666873589,1.9296452952921388,0.1420632956909015,0.3576,0.1449159327461969,0.0,0.1034169795618517,0.1502344086405686,0.0152937676757574,0.2421265024691815,1.5831700159535007,0.0229260214868103,0.0775877835383331,0.5250637878741965,0.7219711090561496,22.0,73.0,5.1,3.0378241686054364,6.330479262038241,0.0259885164567235,1.5898186284559264,0.0,0.0,0.7857142857142857,0.6995057760248623,0.2614838466989758,0.0152,1.0,0.2306256116907228,0.0,0.8181818181817438,0.6690422817683868,4.144407265077236,22.701517077190985,0.0032025620496397,0.928627469108707,0.0937258466301889,0.5434563033743969,1.7287699251116837,0.0832666132906325,0.5681089743589743,0.353084969787438,0.6356495459985526,1.3504403537641207,0.4977960357572432,2.160246899469287,0.3164309725825327,22.0,17.0,21.0,0.4156498157093335,0.0613285422325134,0.0229260214868103,0.3408441460169233,0.4485594217913189,0.179510287363595,0.0081580779935468,0.4584806478937962,0.3476538502244146,0.1325355658469428,0.0583989612043256,0.0029309662258316,-2.9721137282792034,-0.6078294674618399,1.625434140506573,1.0707246199049318,-0.5439405121606957,0.2534340515279657,-2.390153229513614,-1.026546997757968,3.564302011259388,4.569801410845917,1.0054993995865291,1.0,medium,False,False,ambiguous_boundary,0.3356803379686675,0.7730446517631873,good_medium_boundary,0.3356803379686675,0.7730446517631873,0.6556650824385378,good_medium_overlap,0.5769852725459133,True,6434,added
26047,test,0,good,111001,111,0.298678729318446,0.2881063729785282,2.043784593492746,0.1361947802461101,0.2976,0.3234587670136108,0.0,0.2538098202381564,0.4833653486249388,0.0078949928283691,0.0771864473819731,0.9776620611789884,0.1926347158868429,0.1072640563536864,0.4464219232963756,0.7339511047307867,22.0,56.0,3.4,1.3135616684723683,7.802054602941157,0.1006003318847833,0.2192546395908913,0.0,0.0,0.7857142857142857,0.7082909325801796,0.1332733469108706,0.0152,0.8581124508294912,0.1103010961807528,0.0,0.8749999999998906,0.6334593680506475,5.005233616645636,34.606218850880815,0.010408326661329,0.8368006586918266,0.0830052863887154,0.5645992794622371,1.854768220022268,0.0336269015212169,0.3926282051282051,0.2091954755049832,0.599853889647413,1.3517740137869865,0.5438543233851016,2.8284271247461903,0.2612038749637414,22.0,16.0,16.0,0.1615734463609271,0.0372221808880567,0.1926347158868429,0.2204345958158647,0.3840195708651529,0.1841870231299166,0.0187236371050929,0.5745860943557203,0.2356150705451576,0.1221855079309725,0.0627775935681028,0.0048357237344128,-4.933659767122968,2.8539631222136777,1.1311323367744823,4.193132161961597,-1.0445207871566182,0.4830640664118859,-0.9830485069836856,-1.4956509096077155,5.764642672938174,7.703442601039505,1.9387999281013315,1.0,medium,False,False,ambiguous_boundary,0.513172563515813,0.3736431379451974,good_medium_boundary,0.513172563515813,0.3736431379451974,0.6556562811711553,good_medium_overlap,0.5769775274306166,True,6435,added
27995,test,0,good,111001,111,0.2058437846766918,0.2017495031651558,1.2343839617073529,0.1166885570634869,0.2424,0.4683746997598078,0.0,0.2577835101874624,0.4943112777005059,0.0033803042024374,0.0411388874053954,1.2170137135693473,0.2908186273611798,0.0587081372210485,0.3835381376100326,0.7404770184102717,16.0,31.0,1.5,1.4929283256249344,7.065189491116005,0.0990929005334846,0.178752942608836,0.0,0.0,0.3571428571428571,0.6506046180337897,0.2290379798381806,0.0152,0.8430744595676541,0.1645539393534745,0.0,0.8333333333331945,0.7062310111513024,3.360507372387373,21.443991247473257,0.021617293835068,0.6872776247595302,0.0407028679923972,0.4168074267147629,2.272076663523295,0.0184147317854283,0.3870192307692308,0.2464298806014896,0.6674038317844005,1.312490095798815,0.636819068896702,3.858612300930075,0.2058200856669654,16.0,14.0,7.0,0.3209517960309777,0.0188723676750668,0.2908186273611798,0.2481701583436303,0.3334984939978535,0.1199222340692481,0.0075878915925675,0.8564201363496389,0.0822068649343206,0.0485155439697434,0.0120527404979463,0.0008047051051245,-6.093332898413776,7.222801719581792,-2.0007845247509053,4.328027384602073,-1.0802052594888143,-0.6506826417226022,-0.0670422469940691,-0.3841948269719927,9.065509706186118,11.063157670008309,1.997647963822189,1.0,medium,False,False,ambiguous_boundary,0.525787713430734,0.1213401396467758,isolated_good,0.525787713430734,0.1213401396467758,0.6108724989731855,outlier_low_confidence,0.1527181247432963,True,7146,added
28510,test,0,good,111001,111,0.2011587338064328,0.2011435637737716,1.048047043085098,0.1377016684211325,0.0904,0.4491593274619695,0.0,0.1671569462402902,1.284427774518629,0.0035427138209342,0.0450049951672553,1.270350087729574,0.2915521469359196,0.0894461079234362,0.3715283220149348,0.7287917068314707,13.0,27.0,1.4,1.7282682240037115,7.261370110155586,0.0713358869530075,0.2315281267700367,0.0,0.0,0.1428571428571428,0.6245593721360149,0.267541913856596,0.0152,0.8084867894315453,0.2547686253293947,0.0,0.8333333333331945,0.6156258342803019,2.573381905157323,17.45065161664194,0.0120096076861489,0.6988113414085348,0.0404587392247421,0.4436534654928953,2.4312886461456675,0.0168134507606084,0.3886217948717949,0.189792189867243,0.7576423067797111,1.336627576879302,0.683244593590798,3.0912061651652345,0.2444266946297027,13.0,12.0,6.0,0.4289739183753117,0.0148808998521417,0.2915521469359196,0.2212770723234086,0.319548840188104,0.1495758510838174,0.0180226708178172,0.7606681027783215,0.1173084236585852,0.0730990862965892,0.0462249199373104,0.0026994474719628,-5.620181524088584,6.9588293068078615,-2.804322792535187,2.4268151239428746,-0.3638126699654805,-2.063375255877884,-0.105420807548434,-1.469408706848529,8.508651337476703,10.451000244926574,1.9423489074498708,1.0,medium,False,False,ambiguous_boundary,0.51434606583348,0.1470398404036847,isolated_good,0.51434606583348,0.1470398404036847,0.6108636977058028,outlier_low_confidence,0.1527159244264507,True,7147,added
28484,test,0,good,111001,111,0.2436419652001915,0.2383600878300401,1.3880500532686704,0.1249390823523746,0.1744,0.4307445956765412,0.1,0.4432694135612287,0.800205677667981,0.0045012757182121,0.0636084794998168,1.4131180174246225,0.2273657773630038,0.1099109464040452,0.4279187707178117,0.7882862292327927,17.0,40.0,2.3,1.866267727679137,8.847659532963268,0.0881037120434452,0.2931531998523577,0.0,0.0,0.4285714285714285,0.6529212574780278,0.242003330866297,0.0152,0.8792875712323623,0.242003330866297,0.0,0.8333333333331945,0.6165908688072849,4.934825699320127,37.56274128276716,0.0128102481985588,0.8060159996638774,0.0568155367031427,0.5548058651490858,1.9609012645841184,0.0272217774219375,0.4118589743589743,0.1950438103323299,0.6695718885683319,1.3636605245229971,0.6002477639999957,2.867441755680876,0.2585688584788905,17.0,14.0,10.0,0.2304793826014472,0.0234512868337333,0.2273657773630038,0.2022558394391344,0.369791477693185,0.1783742770462152,0.0221902161694267,0.5941107076716934,0.2424275344503296,0.0919833518509408,0.066649406686558,0.0048289847502679,-5.721309570393319,4.796003741477231,-1.1328588748669108,3.4272454299615607,1.201880123279297,3.719303786469722,1.1872842637462715,-3.584108771256108,8.338113063218566,10.262322304890032,1.9242092416714665,1.0,medium,False,False,ambiguous_boundary,0.5098280819104618,0.156369183829138,isolated_good,0.5098280819104618,0.156369183829138,0.6106964736255354,outlier_low_confidence,0.1526741184063838,True,7148,added
31700,train,0,good,121001,121,0.323399196693716,0.3179997320153276,2.42123663842678,0.0936136471044679,0.5352,0.5180144115292233,0.0,0.0344168335288223,0.2108236251885885,0.004538744688034,0.1895584642887091,4.17644215908958,0.0085244382652753,0.1709100742108052,0.5651995844057055,0.8341544512977855,23.0,52.0,2.9,0.5675281739079562,8.080425435207967,0.0544110533599787,0.06826273706069,0.0,1.0,0.8571428571428571,0.7229752844858854,0.0822478687259758,0.0152,1.0,0.0822478687259758,0.0,0.89999999999991,0.5451967761254167,6.373174182952368,46.06152597156309,0.0112089671737389,0.972982869089097,0.1011238332018256,0.6931830385170301,1.5163440128834464,0.0728582866293034,0.4006410256410256,0.1514779216637834,0.4049594290578882,1.4881025487800312,0.7469042540675246,2.449489742783178,0.2898979485566356,23.0,20.0,17.0,0.0906595868574438,0.0257743364199995,0.0085244382652753,0.2046082931467703,0.4565060489593859,0.3048322414227172,0.0253932196699275,0.3313008943516122,0.2980813370506195,0.2416967165889731,0.1215361105016231,0.0073849311682138,-4.2558354849441455,-1.5217802908598357,1.408908289900682,5.689695762148183,-1.810103694465296,3.639309667169075,1.525261606705267,0.8190291771586854,7.339328856853279,9.16899544650583,1.8296665896525512,1.0,medium,False,False,ambiguous_boundary,0.4908760194801385,0.1978524907586692,isolated_good,0.4908760194801385,0.1978524907586692,0.6104647069177962,outlier_low_confidence,0.152616176729449,True,7149,added
28119,test,0,good,111001,111,0.2208360289597085,0.219551924503739,1.1802729664742937,0.1269325715477112,0.156,0.3626901521216973,0.1,0.5005414242146943,0.9789826362032302,0.0046759992837905,0.0468603849411009,1.0021448225849925,0.2621438341883685,0.1045940568787145,0.376475759147437,0.7514585942807315,14.0,27.0,1.3,1.8312017465461616,9.016207124903683,0.0976700254700467,0.2191920910889588,0.0,0.0,0.2142857142857142,0.6473606759948825,0.2997404642100342,0.0152,0.8367524550297163,0.2647732081443681,0.0,0.79999999999984,0.6006777292690926,4.426628587445202,35.09079243664251,0.0072057646116893,0.7817119058646824,0.0482030531622571,0.5160857734075365,2.182147263939196,0.0304243394715772,0.4943910256410256,0.1513877713570183,0.6955969825287345,1.366363269382586,0.5834344776184316,2.449489742783178,0.2898979485566356,14.0,11.0,8.0,0.2787301459832897,0.013540968298912,0.2621438341883685,0.2286191812045455,0.3239896452342127,0.1614814069226499,0.0237655091071808,0.699965170697127,0.1418647745743994,0.1083169593858532,0.0447519345348975,0.0051011436681228,-5.95570517182822,5.942761858002095,-2.306835444259392,3.20266865688796,0.9789057145409588,3.166848656360405,0.8037624400737325,-3.769658223646409,9.026540834056393,11.01670803320826,1.990167199151866,1.0,medium,False,False,ambiguous_boundary,0.5242034853018834,0.1228070175438596,isolated_good,0.5242034853018834,0.1228070175438596,0.6104529718946194,outlier_low_confidence,0.1526132429736548,True,7150,added
3100,train,1,medium,100001,100,0.1817389340327702,0.1809606047981593,0.916067104935646,0.1394005765384529,0.1232,0.1681345076060848,0.0,0.238463107707273,1.2039845018019757,0.0086306184530258,0.233477621898055,2.705221562587368,0.2134448131186245,0.1115189579647664,0.4990269012302825,0.6395803823387719,21.0,72.0,5.1,3.174733345266177,3.655579365134986,0.0227457303291303,2.103845322574243,0.0,0.0,0.7142857142857143,0.9628713432950482,0.2597175972984638,0.0152,1.0,0.2597175972984638,0.0,0.9499999999999524,0.6544378177051492,0.860003108572747,4.389439414911567,0.0056044835868694,0.8717274270220907,0.0327467468697036,0.4445580691360513,2.379414771194808,0.0488390712570056,0.4302884615384615,0.4461683572710144,0.8736168098378575,1.4067489950550625,0.976747914005188,2.6246692913372702,0.275887238151612,21.0,20.0,15.0,0.663287366078906,0.0274622350931167,0.2134448131186245,0.1260199359448812,0.437624719064806,0.2091131354950115,0.0137592140334399,0.7716862119998492,0.1084009399687813,0.0848302761060136,0.0326814436745851,0.0024011063056408,-1.1250641163695263,4.621208556760664,0.2186943626678819,-3.1964341148505206,-0.7316437556521739,-0.3644234678571844,1.7015690187227537,-0.754701547560696,5.095752923255541,7.011008074081326,1.915255150825785,0.6666666666666666,good,False,False,ambiguous_boundary,0.492472713586752,0.3546292811441475,good_medium_boundary,0.492472713586752,0.3546292811441475,0.5258719106762012,good_medium_overlap,0.4627672813950571,True,7106,added
6728,train,1,medium,100001,100,0.1989242764136718,0.1934314605956927,0.979084640741348,0.1527231438271701,0.0832,0.1681345076060848,0.0,0.3837707890317403,1.180059509232505,0.0091381967067718,0.1786295309662817,1.954754764235184,0.1047702426015124,0.1398622478965308,0.608074308495245,0.786937906918657,19.0,77.0,5.8,2.706043032653442,3.362526281168106,0.0225765262359748,2.1482224763757283,0.0,0.0,0.5714285714285714,0.8627342303278516,0.2419816537998702,0.0152,1.0,0.2419816537998702,0.0,0.944444444444392,0.6106987813361946,0.3103030038661058,3.947940852499948,0.0016012810248198,0.8722132904772236,0.0374157360795539,0.3867258410623226,2.8406694477907792,0.0376301040832666,0.5192307692307693,0.4414188500968333,0.8130903413873009,1.4390717604143497,0.8002610826730475,2.160246899469287,0.3164309725825327,19.0,18.0,14.0,0.7183927964174308,0.0308678640052676,0.1047702426015124,0.0983907761473939,0.5154294189678746,0.2581934843194254,0.0231747447493219,0.8376190465794575,0.0780045349551374,0.0604782962094207,0.0217942076269714,0.0021038955089473,-1.0703625129839256,4.097822631682409,0.252549104941017,-3.46776318343548,-0.3251669849553109,-0.8642673923778041,0.5781299155725543,-1.4392599678463431,4.804430366897434,6.742452871023729,1.9380225041262944,0.6333333333333333,good,False,False,ambiguous_boundary,0.4993413624388408,0.3970643582988333,good_medium_boundary,0.4993413624388408,0.3970643582988333,0.5257831514239116,good_medium_overlap,0.4626891732530422,True,7107,added
23161,test,1,medium,111001,111,0.2604394604736634,0.256769311869612,1.6076757065951823,0.126972813894425,0.2272,0.0672538030424339,0.0,0.1402122610455431,0.3814245932089835,0.0327870910987257,0.4645172938704489,1.4167684189942045,0.0285400308898683,0.19920116603738,0.5965376676120259,0.756633002501896,20.0,86.0,6.6,5.519501921158899,6.9347496541694005,0.0182174536398523,3.4437373162857563,0.0,0.0,0.6428571428571429,0.932978256671991,0.4332356318984507,0.0152,1.0,0.4332356318984507,0.0,0.8947368421052162,0.5612512140695782,3.927988714476682,21.38710292956224,0.0016012810248198,0.9737213566370694,0.0659304843826079,0.7418442510871331,1.5962363151778087,0.1705364291433146,0.5288461538461539,0.497705124204935,0.636457580412118,1.567355176007204,0.9534806255501396,1.8856180831641267,0.3465462064555278,20.0,20.0,24.0,0.2698450206999278,0.1310537438839674,0.0285400308898683,0.1299068728772322,0.4779404526082788,0.3079618531019711,0.055618895830331,0.3052902376467628,0.3088846455431265,0.2629902953167876,0.1056363179477492,0.0171984872921529,-0.2317131130010367,-2.636189526285319,0.3193899994946562,-2.001532650213068,-0.7871437022929753,1.2041691193888189,0.7402227509315918,-0.1364707306494282,3.89892582455804,5.214579009128755,1.3156531845707151,0.7333333333333333,good,False,False,ambiguous_boundary,0.3282837786977794,0.6053820097854723,good_medium_boundary,0.3282837786977794,0.6053820097854723,0.5254707690377618,good_medium_overlap,0.4624142767532304,True,7108,added
24549,test,1,medium,111001,111,0.1658852362680143,0.1655969472437227,0.9252204737067222,0.1172488565887091,0.1624,0.11048839071257,0.0,0.3743845597863759,1.0956080457066093,0.0117783546447753,0.0812543869018554,0.6898613632062919,0.3391067821742821,0.0386888362112022,0.2941636558471898,0.672132786057145,22.0,71.0,4.9,2.8358493890622016,3.557689354153837,0.0246080409674216,1.5656213658529574,0.0,0.0,0.7857142857142857,0.7307229069911142,0.1413904785963655,0.0152,1.0,0.0740925358736507,0.0,0.9166666666665902,0.7516668255569495,0.0811217324828963,4.961253653706843,0.0056044835868694,0.6444094250078897,0.0274223556245014,0.3112873381544909,3.232959767920959,0.0576461168935148,0.3709935897435897,0.5378429586302478,0.8016522330721946,1.3295008889479554,0.5676356298006977,2.449489742783178,0.2898979485566356,22.0,19.0,16.0,0.6780136192472099,0.0453635804355144,0.3391067821742821,0.3161847365455326,0.2670469435394346,0.0694441058569618,0.008217029708339,0.8129272070176818,0.1347609151112933,0.0407538833887808,0.0106168254635862,0.0009411459033458,-1.9773093712358576,8.073876699455115,0.7317826863513321,-1.876000789719666,-1.0281252410541182,-0.1575802545876998,-1.8024795185394529,1.075091720592224,7.993100102024679,9.282525597733644,1.2894254957089668,0.9666666666666668,good,False,False,ambiguous_boundary,0.322261949567181,0.210199473089951,good_medium_boundary,0.322261949567181,0.210199473089951,0.5253911052565551,good_medium_overlap,0.4623441726257685,True,7109,added
2727,train,1,medium,100001,100,0.2295702434626785,0.2257399701946782,1.386276975572109,0.1185025770293199,0.2392,0.0848678943154523,0.0,0.0860581487708978,0.5068531197437844,0.0222494099289178,0.3789223313331602,1.7030661138300935,0.0351843601274585,0.167098626884418,0.6334400036699877,0.74755824669893,20.0,86.0,6.6,5.006494763767533,5.462682250367852,0.0215757094268349,3.817124510252513,0.0,0.0,0.6428571428571429,0.9268766285594824,0.4172781659914052,0.0152,1.0,0.4172781659914052,0.0,0.944444444444392,0.5806717214572918,3.1755893176359367,15.034430534968052,0.0040032025620496,0.9733652427338828,0.0509585396286949,0.7069325597893414,1.6053075633382128,0.1433146517213771,0.5264423076923077,0.5119445251047812,0.6827440316205352,1.4819059219587452,0.9663698648360132,0.4714045207910317,0.6796227589829592,20.0,20.0,21.0,0.2739837626267587,0.0983809292316437,0.0351843601274585,0.1052516423066675,0.5149767826285864,0.3197778809364119,0.0247844204645671,0.2807621432479717,0.3494024133575502,0.2562334447590018,0.10126518884439,0.0123367895240754,-0.1365227085068054,-1.822037501981992,-0.719953751427022,-2.8535841035230853,-2.1418961380097907,1.407674038162113,0.8982268843890423,-0.4310696576426495,4.500361283579102,5.869701769808379,1.3693404862292766,0.8,good,False,False,ambiguous_boundary,0.3422092585622883,0.4542717350395182,good_medium_boundary,0.3422092585622883,0.4542717350395182,0.5248485133609333,good_medium_overlap,0.4618666917576213,True,7110,added
23039,test,1,medium,111001,111,0.2651543319074391,0.2599947049949306,1.6393111859261984,0.1372573064981028,0.212,0.0816653322658126,0.0,0.1968893377665637,0.8521453029005158,0.0291381031274795,0.4570661589503287,1.5686196184037704,0.0568252970230712,0.1781942103257118,0.5449753044365915,0.7899048563255258,21.0,83.0,6.2,5.501004742507739,6.409361038894391,0.0182652484586177,3.1962476919887104,0.0,0.0,0.7142857142857143,0.8197205758689826,0.4163766297576789,0.0152,1.0,0.4163766297576789,0.0,0.8888888888888395,0.5668037223592503,3.6672046104473184,19.747066844078983,0.0008006405124099,0.9811094093131916,0.067597251425507,0.6977738804826552,1.666573913694288,0.1313050440352282,0.4927884615384615,0.4732503292271924,0.6747328590141468,1.560584468986451,0.8668833416789443,0.0,1.0,21.0,21.0,21.0,0.3097686092171253,0.103725528717041,0.0568252970230712,0.1735571188915347,0.4591763032936126,0.2659043229490748,0.0445290775869999,0.4227527629804302,0.2833442834685379,0.1987960796694181,0.0843170022415182,0.0107898576603596,-0.7170114708073004,-1.836197443876755,-0.3504727925785668,-3.264596657829668,-1.5251390694233016,1.538252662119533,0.0473139887919139,-0.742102736258948,4.2862974999358885,5.564418262132457,1.2781207621965684,0.8,good,False,False,ambiguous_boundary,0.319439217162213,0.5053631915694392,good_medium_boundary,0.319439217162213,0.5053631915694392,0.5248202860368837,good_medium_overlap,0.4618418517124577,True,7111,added
2702,train,1,medium,100001,100,0.3233991966408439,0.3176383914456438,2.209699394404888,0.1533007318655494,0.2832,0.0704563650920736,0.0,0.1726335219009871,0.5500975452925695,0.037587285041809,0.4246670246124228,1.1298153382414386,0.0463341745583988,0.1364916674775401,0.6642457651239984,0.8056200338325175,29.0,93.0,6.4,3.5478645748590454,5.967143179448896,0.022827581509171,2.9968907398299542,0.0,1.0,1.0,0.8317356473225326,0.3184667593356183,0.0152,1.0,0.3184667593356183,0.0,0.9999999999999332,0.6136620122922041,3.5198299009813643,19.103072264407007,0.0,0.9620538675052152,0.1008941513674083,0.653484937542032,1.6594067915740258,0.1785428342674139,0.5512820512820513,0.4843164198725231,0.6031745798944353,1.467315795835534,0.5264438845827117,3.2998316455372216,0.2325672450543258,29.0,21.0,24.0,0.3753162519193755,0.1376917414367197,0.0463341745583988,0.1128042109949394,0.5590353105563564,0.2626180000945297,0.0190972583673063,0.3013179100611338,0.3757275786458571,0.2264364233270502,0.0880471536330552,0.008470924840363,-0.4616934971885658,-2.18869813641127,4.262653619406004,-0.6596150641925589,1.2342166420348963,0.3307801401643683,-0.7747058813707326,-0.9607731219809426,4.377127268701087,6.359869811437158,1.9827425427360712,0.5666666666666667,good,False,False,ambiguous_boundary,0.5114791117802032,0.4812758750470455,good_medium_boundary,0.5114791117802032,0.4812758750470455,0.5247541086438338,good_medium_overlap,0.4617836156065737,True,7112,added
15506,train,1,medium,105001,105,0.1663209649576969,0.1658083855452505,0.9060613077878952,0.1232439105340279,0.1064,0.088070456365092,0.0,0.1963998496107623,0.8395295874795566,0.0207851007580757,0.1420332312583922,0.6833412287842033,0.0782842957579769,0.0461451303300854,0.3374091434368781,0.7526993612616496,22.0,76.0,5.4,2.562453417400892,3.545128419862426,0.0504883434952616,0.5936381039539789,0.0,0.0,0.7857142857142857,0.8097556226335357,0.1350930019784587,0.0152,1.0,0.0704773531147588,0.0,0.4782608695651966,0.7719676592814314,-0.0973789650090909,4.40978900928465,0.0040032025620496,0.909072009838088,0.0274924274009548,0.3968849426238844,2.705681821659237,0.0704563650920736,0.2387820512820513,0.6238917772427829,0.8297830147346837,1.3001576226488616,0.3873740547149148,1.247219128924647,0.4449944320643648,22.0,20.0,19.0,0.5629747898583862,0.1102915666997429,0.0782842957579769,0.5279345104929868,0.3081330269111874,0.0735727021267906,0.0120678899997334,0.6955871219558012,0.1708175585991125,0.1148340662399843,0.0158001153540159,0.0029611107952441,-0.8008844630062482,5.088270958285455,0.7411872500527482,-1.205080600313067,-3.429102296355302,-0.7449883137293926,-1.047850132728173,-0.719568292782082,5.70461229914418,7.536499559538941,1.8318872603947616,0.7333333333333333,good,False,False,ambiguous_boundary,0.4659390289800527,0.2912118931125329,good_medium_boundary,0.4659390289800527,0.2912118931125329,0.524581608330197,good_medium_overlap,0.4616318153305733,True,7113,added
22909,test,1,medium,111001,111,0.2594502220907279,0.2552755695475981,1.5427145190536973,0.1356733249895332,0.2056,0.0832666132906325,0.0,0.0954730997032811,0.4468876393127488,0.0243760105222463,0.5048516556620584,2.0710995677137456,0.0371429334569343,0.1949704831016635,0.5481478839189798,0.7116933169752716,21.0,83.0,6.2,5.300991439127777,5.960326429463987,0.0186473095190272,3.56569535650164,0.0,0.0,0.7142857142857143,0.9869281048421548,0.4035732277820164,0.0152,1.0,0.4035732277820164,0.0,0.9523809523809073,0.5717809276959811,3.495457383375828,17.616851756652945,0.0024019215372297,0.963432785528532,0.0651656213023393,0.7225448011729906,1.5911793861600547,0.1112890312249799,0.4927884615384615,0.4676337833267158,0.6851166046594543,1.5158021917479747,0.9457409427186484,0.9428090415820634,0.5147186257614297,21.0,21.0,23.0,0.2839408130304278,0.1101520348340273,0.0371429334569343,0.1649431447356598,0.4734161266102025,0.2805429414881176,0.0439061888321159,0.3398545640489075,0.3224446357947222,0.2167220281223437,0.1095715865378266,0.0114071701088291,-0.2926873929333949,-2.275222926506397,0.1985454786576025,-2.9342328675104925,-1.15118609028874,1.3634445581448194,1.2927780376748708,-0.7529551819392952,4.219949570268243,5.776800825850982,1.556851255582739,0.7,good,False,False,ambiguous_boundary,0.3880316146029356,0.5232404968009032,good_medium_boundary,0.3880316146029356,0.5232404968009032,0.5242623259315016,good_medium_overlap,0.4613508468197214,True,7114,added
17381,train,1,medium,105001,105,0.2541713297290462,0.2415825986922771,1.4790462718904016,0.1244654438531375,0.3592,0.1136909527622097,0.0,0.1143309105956954,0.3231596212138955,0.0190821290016174,0.247090637683868,1.2948791414994107,0.0067051553796361,0.1433985706439562,0.4877305454879566,0.7981120788918844,22.0,77.0,5.5,5.335614610933117,5.715360800004241,0.0216490376392892,3.8140782307501255,0.0,0.0,0.7857142857142857,0.7411613770136041,0.4003603422621416,0.0152,1.0,0.4003603422621416,0.0,0.9166666666665902,0.5544381469819258,3.253911947209813,16.105778602610904,0.0032025620496397,0.9687844613444389,0.0583621571592619,0.6427328265762763,1.649580417735596,0.1529223378702962,0.421474358974359,0.4244146262171,0.6302318836471702,1.397216946322392,0.5896170211322601,2.0548046676563256,0.3273531727209285,22.0,19.0,24.0,0.584881735028223,0.0734300598502158,0.0067051553796361,0.3149546851695241,0.403283126422446,0.2533578118954434,0.0216492913410418,0.419326300586418,0.2981947144399929,0.202165240421876,0.0726237159781999,0.007690013971933,-1.4753244035255764,-0.9867209189215164,0.4084862495469136,-0.7040392878818851,-0.8257077008030217,-0.1235736704942584,-0.5387289617531258,0.9735419713022476,2.7494617454895574,3.123100024850856,0.3736382793612982,0.8,good,False,False,ambiguous_boundary,0.1649416635302973,0.8491719984945427,good_medium_boundary,0.1649416635302973,0.8491719984945427,0.5240581482875423,good_medium_overlap,0.4611711704930372,True,7115,added
16909,train,1,medium,105001,105,0.1989444194272234,0.1962994923300749,1.206732255220413,0.1101425600620103,0.2072,0.0744595676541233,0.0,0.1187662397888722,0.1400377971642036,0.0227073803544044,0.3892577528953549,1.7142337662762397,0.0016547017643852,0.180784661074201,0.6523267635634047,0.7980151025441008,20.0,87.0,6.7,4.965004662978044,5.438659144045644,0.0207022419440213,3.671254916274333,0.0,0.0,0.6428571428571429,0.9398309980976278,0.4206240808932052,0.0152,1.0,0.4206240808932052,0.0,0.8636363636363245,0.5614964089748484,2.9264895609503285,13.924645289030114,0.0024019215372297,0.996028537203132,0.0385334967630553,0.7312049109281636,1.526711530719593,0.1289031224979984,0.3469551282051282,0.504197434293356,0.7163461896511397,1.437703775407438,0.9257392269122172,0.4714045207910317,0.6796227589829592,20.0,20.0,21.0,0.3509942327406773,0.0962767770513892,0.0016547017643852,0.1201719044965125,0.5230203670361296,0.3201634779972049,0.0348606952288509,0.201968842540627,0.4003549223769313,0.2679614095126009,0.1188166535286923,0.0108981450599424,0.3709499480518389,-2.0166754075858493,-0.9156578910345148,-2.878399384992884,-2.775385867677082,1.2779633464030231,1.6531435319344343,-0.2120383961978959,5.177214670260432,6.635037999653259,1.457823329392827,0.8333333333333334,good,False,False,ambiguous_boundary,0.3634738426797139,0.3439028980052691,good_medium_boundary,0.3634738426797139,0.3439028980052691,0.5240104754735917,good_medium_overlap,0.4611292184167607,True,7116,added
14291,train,1,medium,105001,105,0.1779040057703478,0.1778861472360037,1.1824758490920066,0.1139466477198999,0.1984,0.1897518014411529,0.0,0.5398225668844957,0.8865859057500394,0.009801372885704,0.1163856297731399,1.1874409063530815,0.234796254919575,0.0291541732660098,0.1346163580155897,0.6456204656694784,23.0,64.0,4.1,1.981903202564416,2.7691556628911864,0.0589504009043735,0.9652429340851948,0.0,1.0,0.8571428571428571,0.7571965550217069,0.0523130570722853,0.0152,1.0,0.0332531103130605,0.0,0.7647058823528963,0.6112628290009107,-0.9609326935132816,8.122960750295405,0.0088070456365092,0.7590750770577619,0.0316434878207463,0.3039012798745037,3.428151976042665,0.0728582866293034,0.3325320512820512,0.4995145451349423,0.7629466791031173,1.3143198078937388,0.4184083996795789,2.160246899469287,0.3164309725825327,23.0,18.0,19.0,0.4382924878419668,0.0605272576212883,0.234796254919575,0.5924445962069278,0.1149557130489178,0.0522575223844829,0.0055153772291139,0.8657401982357734,0.0826243788758924,0.0381333509074465,0.0125074571213208,0.0009945932713418,-2.1852778979745784,8.204959330287481,1.3696721921595938,-0.2964445910972247,-1.8155980502164344,0.5002923570277381,-1.3429299032260018,1.261223608437021,8.153624900099729,9.31205617488091,1.1584312747811811,1.0,good,False,False,ambiguous_boundary,0.2943168987579977,0.207376740684983,good_medium_boundary,0.2943168987579977,0.207376740684983,0.5239179525780956,good_medium_overlap,0.4610477982687241,True,7117,added
23297,test,1,medium,111001,111,0.2991070189103334,0.2938404923382936,1.8194353474676608,0.1460547130088758,0.236,0.0832666132906325,0.0,0.0818668809918677,0.2843788386136853,0.0362470522522926,0.4852864086627925,1.3388296278606635,0.0266997305649779,0.2215924518101567,0.5534382389326346,0.6611575124842042,21.0,88.0,6.7,5.378995709986542,6.300335263815879,0.0185181446116894,3.831124754606868,0.0,0.0,0.7142857142857143,0.9240579022539632,0.3866158328520971,0.0152,1.0,0.3866158328520971,0.0,0.99999999999995,0.575840297627429,3.874963962744481,20.541729235849644,0.0,0.9762743267681508,0.086342239060801,0.7519909079779545,1.569989621690015,0.1505204163330664,0.5176282051282052,0.5085348609036802,0.6498153026596494,1.5567987203049436,0.9446499772992858,3.0912061651652345,0.2444266946297027,21.0,20.0,27.0,0.2851549140466375,0.1542052681557834,0.0266997305649779,0.1443765295643301,0.4782500615961281,0.2962126609251688,0.0544594554953999,0.2816345506074745,0.3351084500020371,0.2660710819342584,0.1002841455918497,0.0169017596377485,-0.3190266787868569,-3.23787618186906,1.3725318153597286,-1.8174515630943828,0.3434259424622691,0.7218882152032485,0.4357080327660834,-0.6388175947393598,4.148109946905638,5.455125789712484,1.3070158428068457,0.7666666666666667,good,False,False,ambiguous_boundary,0.3261196838539706,0.5431878057960106,good_medium_boundary,0.3261196838539706,0.5431878057960106,0.5237247522268222,good_medium_overlap,0.4608777819596035,True,7118,added
28577,test,1,medium,111001,111,0.2390108220646936,0.2345538470424059,1.4075554324686514,0.120587363808183,0.2576,0.1184947958366693,0.0,0.3641762034677748,0.8362890661826701,0.0156374825164675,0.1045993816107511,0.6689012416830852,0.2701579146658386,0.1021729142793633,0.3893115904578054,0.7674759189095219,26.0,80.0,5.4,1.39607916212161,7.716224996467371,0.0413763437821511,0.2500783768119575,0.0,1.0,1.0,0.8194028951825981,0.0849234060954006,0.0152,1.0,0.0628750945543977,0.0,0.8333333333331945,0.6160064817964936,4.73850148915537,35.624922968286256,0.0016012810248198,0.7532265909147557,0.0550155124713155,0.5468025028165598,2.041401030782003,0.0824659727782225,0.5024038461538461,0.3590974202082121,0.6340265768067429,1.4883504382668704,0.352702248864795,3.39934634239519,0.2273064955953337,26.0,20.0,18.0,0.2676418539128796,0.0782724598422646,0.2701579146658386,0.2061622463306347,0.3343195413468193,0.1672589494586319,0.0220854662667385,0.5683223372423429,0.2794064877224592,0.1103129650762962,0.0373518258918426,0.0046063695827895,-1.9819156603319528,3.7848690162729097,3.5915113611219764,1.2588987623912926,-1.163026244393803,1.7363054003209362,-1.4504663878456177,0.8517820219784343,5.238810455155504,6.7111417625993575,1.472331307443854,0.8333333333333334,good,False,False,ambiguous_boundary,0.366296575084682,0.3359051561911931,good_medium_boundary,0.366296575084682,0.3359051561911931,0.5236811566930122,good_medium_overlap,0.4608394178898507,True,7119,added
4451,train,1,medium,100001,100,0.2532054864004918,0.2469954273910736,1.4785830178856851,0.1322869416674482,0.1984,0.1032826261008807,0.0,0.1380536416651906,0.5282878204232215,0.0205787420272827,0.3852768003940572,1.8722068271354275,0.0416643073261509,0.1335035176179656,0.6028185788365922,0.7810810171329785,20.0,82.0,6.2,4.964913721146326,5.269161506189552,0.0221596849785951,3.253556267272598,0.0,0.0,0.6428571428571429,0.818320412151588,0.4156864213094061,0.0152,1.0,0.4156864213094061,0.0,0.944444444444392,0.6196690932145533,3.279047598836923,15.419494999305796,0.0008006405124099,0.9725235923369504,0.0610067462121906,0.6436870070957197,1.6454478590225452,0.11048839071257,0.4575320512820512,0.4678812758714419,0.7001759150760123,1.421939788708166,0.8761987137065349,0.4714045207910317,0.6796227589829592,20.0,20.0,19.0,0.3065956261906276,0.0798706665635109,0.0416643073261509,0.166894878267228,0.5170491440365577,0.2566115626558097,0.0177586109720775,0.3701265052363512,0.3273941146928328,0.2279016555611278,0.0671218026022273,0.0074559067783382,-1.1837290109651284,-1.3212497611120269,-0.2506297636252848,-2.5983964697888338,-1.498702214398588,0.6185104767157028,0.0934675666493365,-0.9263267878938792,3.551479410077658,4.549573772325572,0.998094362247914,0.7666666666666667,good,False,False,ambiguous_boundary,0.2614791117802032,0.6883703424915318,good_medium_boundary,0.2614791117802032,0.6883703424915318,0.5236730021327312,good_medium_overlap,0.4608322418768034,True,7120,added
15436,train,1,medium,105001,105,0.2548524668686381,0.2458476629777207,1.5740799942612649,0.1314065754939205,0.264,0.1385108086469175,0.0,0.1875840947482334,0.3832887744899885,0.0183749943971633,0.2037906654179093,1.1090645804110348,0.0966643137759785,0.1207060848913278,0.4481225159483653,0.8242729612763897,23.0,75.0,5.2,5.197852099974832,6.057838782444042,0.0220545522760548,3.20413476613624,0.0,1.0,0.8571428571428571,0.7538624640527553,0.375689445252938,0.0152,1.0,0.3440240720470603,0.0,0.9166666666665902,0.5809180106647813,3.535676327794763,19.238044384124024,0.0016012810248198,0.8710476102081655,0.0604410784746538,0.6037513825670423,1.775615843239938,0.1056845476381104,0.4399038461538461,0.4320395178255883,0.6849407271676345,1.4425540821648282,0.5340406066397148,2.494438257849294,0.286169028098801,23.0,17.0,21.0,0.4318827594414263,0.0829104378819462,0.0966643137759785,0.2886368950877194,0.3772011768516702,0.2181850238644812,0.0192966868838018,0.529245663770677,0.240529354101763,0.1622039583773832,0.0630301504905386,0.0049908601060677,-1.7941778719712724,0.503479231747588,1.4324671941615206,-0.6509199401934798,-0.1086156698873006,-0.1695507839900076,-0.8563694957730312,1.054087334359688,2.124078629203145,3.333786385709487,1.209707756506342,0.5666666666666667,good,False,False,ambiguous_boundary,0.3054196462175386,0.939499435453519,good_medium_boundary,0.3054196462175386,0.939499435453519,0.5236720612219294,good_medium_overlap,0.4608314138752979,True,7121,added
16431,train,1,medium,105001,105,0.3100416875953591,0.3023637852788506,1.9702636170387264,0.1427070762939402,0.3224,0.088871096877502,0.0,0.1503399675187791,0.2579139828148548,0.0317025557160377,0.3469090610742562,1.0942617836724842,0.0093589203466373,0.1797094084077352,0.5603243092595716,0.8420449540956567,24.0,85.0,6.1,5.572156712894999,6.499936294023861,0.0209308952498522,4.313934157541143,0.0,1.0,0.9285714285714286,0.7545923816480591,0.4397485720054894,0.0152,1.0,0.4397485720054894,0.0,0.923076923076852,0.5464279167838064,4.213634139765585,23.941308016375533,0.0032025620496397,0.9846686613673624,0.0914238626008793,0.6998636688056334,1.5908484085950858,0.1737389911929543,0.500801282051282,0.4552635129942054,0.6244344147156394,1.4930611938830822,0.5904716022399221,1.247219128924647,0.4449944320643648,24.0,22.0,25.0,0.3895191734750517,0.1169202148914337,0.0093589203466373,0.1985056604784135,0.4603262321141622,0.2962183776660365,0.0355690831299418,0.3810801552262673,0.3059276049366193,0.1977161044499643,0.1057081480447627,0.0095679769737148,-0.9000696548907366,-3.039297630284154,1.787212793281039,-1.1079533843131812,0.4505760972794198,0.6503548976861714,-0.6702930232878925,0.3425763203705798,3.9484066516588654,4.895239285225814,0.9468326335669476,0.8333333333333334,good,False,False,ambiguous_boundary,0.2519759126834776,0.5930560782837787,good_medium_boundary,0.2519759126834776,0.5930560782837787,0.5236670430309873,good_medium_overlap,0.4608269978672688,True,7122,added
7597,train,1,medium,100001,100,0.2987466497068898,0.2951393422031834,1.8878150904178617,0.143718827791349,0.232,0.1417133706965572,0.0,0.1401359700343366,0.5503686514176861,0.018063984811306,0.3609327703714354,1.998078354991182,0.0298640109971821,0.1344074393614202,0.6404687116061583,0.8336278142894065,24.0,77.0,5.3,5.057056218418821,5.626666318826976,0.0225930400091504,3.535254454224685,0.0,1.0,0.9285714285714286,0.7426355622455795,0.5141089334493038,0.0152,1.0,0.5141089334493038,0.0,0.9374999999999416,0.6179364820482856,3.769085450054993,19.253457788762702,0.0032025620496397,0.9801915515144256,0.087107235413341,0.6532628472203678,1.6200369413246003,0.0984787830264211,0.469551282051282,0.4300406270346502,0.6602706607348376,1.4286414320464158,0.6659416469752766,1.247219128924647,0.4449944320643648,24.0,22.0,21.0,0.2782740531590694,0.0917809128761291,0.0298640109971821,0.1445092620791144,0.5269922834892847,0.2789043861562054,0.019695280101122,0.3255748993269859,0.2831498190361681,0.2725969967059672,0.1112984921165392,0.0073797808420019,-1.3459810940393038,-2.206510035503765,1.524838592953614,-1.0851260159712448,0.7754839471292337,0.0918565159100769,0.1172144998847224,-0.3242882188313513,3.290241450322452,3.994318639322488,0.7040771890000364,0.8,good,False,False,ambiguous_boundary,0.2099171998494542,0.7449190816710576,good_medium_boundary,0.2099171998494542,0.7449190816710576,0.5234465562664659,good_medium_overlap,0.4606329695144899,True,7123,added
15508,train,1,medium,105001,105,0.1580919507109484,0.157865046060605,0.7664174190163612,0.1243259725513722,0.088,0.0728582866293034,0.0,0.2103621732233195,0.3855312644953078,0.0198991000652313,0.1102718826383352,0.5541548455024001,0.044507316580432,0.0246134718989235,0.2819784579892656,0.6196459414428177,25.0,75.0,5.0,2.249638915532487,2.884302540863987,0.0555128907822791,0.6084083079009,0.0,1.0,1.0,0.7992514096945385,0.1057249520724157,0.0152,1.0,0.0356701959697059,0.0,0.5833333333333091,0.8095609498016899,-0.2520184181984926,3.2358333251303235,0.0024019215372297,0.9556269530924834,0.0249213796104161,0.3152165108651766,2.761745857070924,0.0632506004803843,0.1979166666666666,0.7321259443830694,0.8981992465109867,1.2357166195287712,0.1338285422171004,2.867441755680876,0.2585688584788905,25.0,22.0,18.0,0.7953871210112716,0.1424104519188404,0.044507316580432,0.6414289690269849,0.2656690236846387,0.0447155471465468,0.0036783839256142,0.6468716517727795,0.282145802908806,0.058678462811481,0.0114935591036681,0.0008104960761735,-0.1915979276342415,5.482406666880945,2.485382780681382,-0.202085132516106,-3.020993360963114,-1.7646902758820795,-0.8898684597658705,-0.4383273356498457,6.0559623300558245,8.314296129592282,2.258333799536458,0.5666666666666667,good,False,False,ambiguous_boundary,0.6027474595408355,0.2682536695521265,good_medium_boundary,0.6027474595408355,0.2682536695521265,0.5232204240371345,good_medium_overlap,0.4604339731526783,True,7124,added
25316,test,1,medium,111001,111,0.2451737385804369,0.2450349877734493,1.3363466322422026,0.144551352992776,0.2016,0.1713370696557245,0.0,0.8475386649128366,0.5063201945349736,0.0138134956359863,0.0915327849332243,0.662632552121796,0.2619966962472653,0.0431151734092466,0.2327362218048776,0.7412866342855436,25.0,71.0,4.6,0.9244651619046272,2.5887065647282084,0.0292934868588164,0.2930081319269919,0.0,1.0,1.0,0.7531521229512667,0.0384208087449852,0.0152,1.0,0.0178062304783274,0.0,0.79999999999992,0.7444237964385882,0.3636188091045552,22.12919296422536,0.0072057646116893,0.7882385999970705,0.0600421503324347,0.3824967509998685,3.195392228270664,0.0592473979183346,0.483974358974359,0.3593393916031506,0.6051452996256266,1.4385372157102525,0.3556312212552122,3.741657386773941,0.2108967220595339,25.0,22.0,16.0,0.8716695140828846,0.0733213156461715,0.2619966962472653,0.4508542168694563,0.2133866658148026,0.0590601905706575,0.0146545099067107,0.714742498790406,0.1970693690754981,0.0616890215160499,0.0251650406766025,0.0013340572525129,-2.266878059117253,7.074960197381567,3.3563415666418,-0.0009662580625346,0.5121061354774108,0.6852527833272509,-2.5971267997600247,0.0286909345719649,7.5406234995069985,8.895611060711339,1.3549875612043405,0.9333333333333332,good,False,False,ambiguous_boundary,0.3384456153556643,0.2205494919081671,good_medium_boundary,0.3384456153556643,0.2205494919081671,0.5230770919583491,good_medium_overlap,0.4603078409233472,True,7125,added
25461,test,1,medium,111001,111,0.2181347491811615,0.2113571514047953,1.1899747303128236,0.1582106145360289,0.0856,0.0928742994395516,0.0,0.1360723837433884,1.2002433176782092,0.0158954411745071,0.0542402235825647,0.3412311043398021,0.4851617093616014,0.0501625644196451,0.2511571029155836,0.6300346339959483,25.0,84.0,5.9,0.9271303218414784,5.763504918747192,0.0644411533835118,0.1496849201620664,0.0,1.0,1.0,0.7399913096079824,0.0337471544433186,0.0152,1.0,0.0155273874122731,0.0,0.8749999999998906,0.674403082990921,1.834688688283329,10.130855192457076,0.0008006405124099,0.5741052965269124,0.0446718512228066,0.3904818539826698,2.728710743925045,0.0360288230584467,0.6354166666666666,0.3825891103793599,0.7716865725816445,1.407635276683853,0.4217912970504503,3.0912061651652345,0.2444266946297027,25.0,19.0,18.0,0.5341205972432812,0.0434819960966705,0.4851617093616014,0.1981078005381703,0.2196163784283012,0.0876962065450911,0.0094159807765257,0.7714090633717998,0.1465976656612602,0.0636912615750959,0.0165519173496367,0.001750076604971,-1.544900795907666,7.884564284746006,3.569425743106537,-0.2251415163640528,0.0231228393782707,0.0579793178613397,-2.895580726721542,-0.2704127854498198,8.180467953191268,9.86415072235358,1.6836827691623115,0.8333333333333334,good,False,False,ambiguous_boundary,0.4221866767030485,0.2070944674444862,good_medium_boundary,0.4221866767030485,0.2070944674444862,0.5230695646719358,good_medium_overlap,0.4603012169113035,True,7126,added
21991,train,1,medium,105001,105,0.2601931562210824,0.2529403633972214,1.5456273137032983,0.1400928740656119,0.1512,0.1305044035228182,0.0,0.1936579652575807,0.388104294548074,0.0163874551653862,0.3164507739245872,1.9310538312721992,0.0186040841056261,0.1733504175071411,0.5494217175025857,0.841446034909932,24.0,71.0,4.7,5.030310724325148,5.988079827663338,0.0211086132682041,3.4141899539319613,0.0,1.0,0.9285714285714286,0.7417356052701004,0.4848705189000699,0.0152,1.0,0.4848705189000699,0.0,0.9333333333332712,0.5558964677359669,3.493052450811463,18.13676509625063,0.0056044835868694,0.9786594774412052,0.0639788323767112,0.6478980497797134,1.656543141499932,0.0704563650920736,0.4447115384615384,0.4083536194979941,0.682875426618682,1.447379431678193,0.6590519335251718,2.0548046676563256,0.3273531727209285,24.0,19.0,22.0,0.3612323435123371,0.0852116852998732,0.0186040841056261,0.2051927598886112,0.4535829215841982,0.2919523971400869,0.0305586116455702,0.4281475350590881,0.2988026677459645,0.1812661409972024,0.0856092407389414,0.0061744013344428,-1.30046144845767,-1.1645084842195943,1.4018781240457925,-0.9871903681928732,0.540792199723006,-0.4742966232528414,1.0158502652513954,0.4006330399749442,2.5961817706724344,3.684976144234229,1.0887943735617944,0.6333333333333333,good,False,False,ambiguous_boundary,0.2813323296951449,0.8735415882574332,good_medium_boundary,0.2813323296951449,0.8735415882574332,0.5229745326809685,good_medium_overlap,0.4602175887592523,True,7127,added
23109,test,1,medium,111001,111,0.2670487949694565,0.2613673511079298,1.548059978634119,0.136518134496943,0.2048,0.0800640512409927,0.0,0.0978973609430842,0.388648655306319,0.0318817645311355,0.5099688473157569,1.5995623042178038,0.0346238345832002,0.2121188112220768,0.5709243647036809,0.7552508490217432,21.0,84.0,6.3,5.04540061878729,6.251231230171584,0.0181189759376024,3.720807863906528,0.0,0.0,0.7142857142857143,0.9827936091115708,0.3945948141036564,0.0152,1.0,0.3945948141036564,0.0,0.9523809523809073,0.5691211479039161,3.6291446803504455,18.63350273382152,0.0016012810248198,0.964818238452852,0.0683128969978289,0.7509165785497705,1.5487558236346606,0.1465172137710168,0.4887820512820512,0.5209189817156994,0.6548763853426344,1.5428521281055525,0.94701897016821,0.9428090415820634,0.5147186257614297,21.0,21.0,23.0,0.285351995789597,0.1172564978711306,0.0346238345832002,0.1263993698824539,0.4926768355547127,0.2970967859891152,0.0491995420763949,0.295157602486039,0.3095052301222196,0.2872653993073114,0.093574016937706,0.0144977362433746,0.0203379424950351,-2.7312443932069104,0.2571384432597573,-2.8131794516161737,-1.0497755113136524,1.463036034760459,1.143518665671523,-0.7851309441286963,4.491646578986935,6.050771864306173,1.5591252853192383,0.7333333333333333,good,False,False,ambiguous_boundary,0.3885961610839292,0.4571885585246518,good_medium_boundary,0.3885961610839292,0.4571885585246518,0.5229726508593652,good_medium_overlap,0.4602159327562413,True,7128,added
16900,train,1,medium,105001,105,0.2018135560903824,0.1992113086259141,1.2380565385520457,0.1093416728950978,0.1896,0.0832666132906325,0.0,0.0748154655649963,0.2886954407043079,0.0237220153212547,0.3648400418460361,1.537980155173102,0.0055844515112554,0.176667101195585,0.6278587886031664,0.7996775342071546,19.0,78.0,5.9,5.110567288370323,5.320235861187794,0.0208909740279086,3.630145874539405,0.0,0.0,0.5714285714285714,0.966267735639472,0.4650310995291535,0.0152,1.0,0.4650310995291535,0.0,0.9999999999999444,0.5856658522645217,3.020290638300954,14.397250839455744,0.0032025620496397,0.994060086678488,0.0396851515002231,0.7083164816094681,1.54632834200325,0.1224979983987189,0.3149038461538461,0.5362484929119815,0.7039921527286738,1.4312921172820916,0.9285916730610484,1.8856180831641267,0.3465462064555278,19.0,19.0,23.0,0.3419405591804362,0.095980416983366,0.0055844515112554,0.1399022043228417,0.5106954104730647,0.3081775707557941,0.0355932326439848,0.528555733528641,0.2026109791826701,0.1866592821378106,0.0745154919789499,0.007658496038863,-0.428148083425127,-1.0588814258739796,-0.679888462539953,-2.4157179064741725,-2.153466106731901,0.3502863624361334,1.9664229540947613,0.4734698818226091,4.119923666807469,5.403667467831597,1.2837438010241282,0.7666666666666667,good,False,False,ambiguous_boundary,0.3212269476853594,0.5501505457282649,good_medium_boundary,0.3212269476853594,0.5501505457282649,0.522915568937398,good_medium_overlap,0.4601657006649102,True,7129,added
15871,train,1,medium,105001,105,0.208641129168899,0.2052153539423311,1.2309908589720726,0.1260447012293734,0.1672,0.0576461168935148,0.0,0.0690104157790701,0.434818953653559,0.0280341207981109,0.3027758155018089,1.0800256932603418,0.0392615471881702,0.1892835275885843,0.6163232415557203,0.7310640218734533,19.0,87.0,6.8,4.649798780822367,5.088211459930018,0.0202815486088993,3.84325188643253,0.0,0.0,0.5714285714285714,0.9639810373598796,0.3674075714331125,0.0152,1.0,0.3674075714331125,0.0,0.8888888888888395,0.5759956635460431,2.3969949814825187,11.063897400379217,0.0016012810248198,0.9846335752353328,0.0421133473893692,0.7027666503656864,1.5773740613784983,0.1240992794235388,0.453525641025641,0.5277801689795832,0.7607877096625556,1.4353421170663936,0.9660672865366972,0.0,1.0,19.0,19.0,19.0,0.4766805796272436,0.0869358635507524,0.0392615471881702,0.102371417491279,0.5423969004698141,0.2852763939485699,0.0306798199754787,0.258429040670855,0.3785314694693817,0.2525387099025176,0.1017756976757582,0.0087250580905764,0.4842820259097309,-1.4939998371249672,-1.4469495181897785,-4.067279889302262,-3.1342058477082704,1.27730571444584,0.860651170805541,-1.1677154368442622,5.852196981101406,7.415627216340695,1.5634302352392897,0.8333333333333334,good,False,False,ambiguous_boundary,0.3892547986450884,0.2799209634926609,good_medium_boundary,0.3892547986450884,0.2799209634926609,0.5228155187554887,good_medium_overlap,0.46007765650483,True,7130,added
24552,test,1,medium,111001,111,0.1757277456079025,0.1671258286051664,0.7343104758858678,0.1179645654664607,0.1712,0.1224979983987189,0.0,0.5675831322115517,1.378626434141094,0.0122603476047515,0.0959518764168023,0.7826189048483834,0.3211591115640932,0.0472327413754935,0.3152762558408014,0.6882494018993175,20.0,79.0,5.9,2.6503974169927624,3.533959780160708,0.023902773153764,1.4173151116804488,0.0,0.0,0.6428571428571429,0.6994222245842157,0.1211025179883492,0.0152,1.0,0.0755301064454155,0.0,0.9166666666665902,0.7523406310191119,1.359614297102146,4.803168637227747,0.0080064051240992,0.811207027984914,0.027931049244447,0.3098020107332818,3.4541147555600693,0.0608486789431545,0.3990384615384615,0.5740971417324662,0.7908927584612687,1.4052519040688352,0.7630522914026542,0.816496580927726,0.5505102572168219,20.0,19.0,18.0,0.5608681021087835,0.0490809130948036,0.3211591115640932,0.3033302525919305,0.2852512629633924,0.07844314576018,0.0117701695827333,0.8563885951431904,0.090292349295789,0.0462131695770223,0.0063293590813936,0.0007765067877504,-1.9778333130826096,7.647515412285687,0.1072307928690682,-2.9213719346519653,-1.8073341022473224,0.6314726831598045,-1.8722770524750405,0.4950604113617597,7.919833333418152,9.288565102294635,1.3687317688764846,0.9333333333333332,good,False,False,ambiguous_boundary,0.3416447120812947,0.2119872036130974,good_medium_boundary,0.3416447120812947,0.2119872036130974,0.5228042278258687,good_medium_overlap,0.4600677204867644,True,7131,added
29385,test,1,medium,111001,111,0.2056133273621715,0.198940142471429,0.9867260968685146,0.1530268277097027,0.0792,0.1825460368294635,0.0,0.4113984078603434,1.1804498456621513,0.0088343620300292,0.0486920677125452,0.5511661445435388,0.3125211140381819,0.0965931591082674,0.3660316094967586,0.7545844642630047,22.0,78.0,5.6,1.082381553102592,5.460729515101052,0.021944789319835,0.2138670100642333,0.0,0.0,0.7857142857142857,0.6978219494652358,0.0600281609048095,0.0152,1.0,0.0430401875079708,0.0,0.7499999999999063,0.6201439230291704,1.7893994207720851,10.461678789785344,0.0080064051240992,0.7610213771134307,0.0395771863077497,0.3970859184833906,2.75641718933082,0.0232185748598879,0.5136217948717948,0.3009243649108973,0.7608033792258461,1.460555612920238,0.523498348622555,4.714045207910316,0.1750073658177636,22.0,22.0,12.0,0.5595587638247493,0.0340705014765262,0.3125211140381819,0.2022168246777181,0.3140752038169632,0.1518837364015863,0.0192675720577047,0.8418583209281865,0.084572776920304,0.0475549126378019,0.0233115806182538,0.002702391844209,-2.035105714131175,7.112314546615337,2.1136828207731964,-0.4102713449026747,0.4110690916016447,-0.9427429990713898,-1.5430627843622893,-0.5377739788447393,7.084552028481783,8.302744047380108,1.2181920188983248,0.9666666666666668,good,False,False,ambiguous_boundary,0.307207376740685,0.2308995107263831,good_medium_boundary,0.307207376740685,0.2308995107263831,0.5227565550119182,good_medium_overlap,0.460025768410488,True,7132,added
6459,train,1,medium,100001,100,0.2519317667283252,0.2444210429195158,1.449298127144575,0.1405333759336848,0.1848,0.165732586068855,0.0,0.1529643768864994,0.8144777154682059,0.0140454620122909,0.3438949197530743,2.448439749494625,0.0623932837277612,0.1300909693637122,0.6232427913123595,0.7971007338841123,23.0,69.0,4.6,4.756948934285085,5.38816412517445,0.023107096008865,3.315642670793226,0.0,1.0,0.8571428571428571,0.7569543942638151,0.5294168092739626,0.0152,1.0,0.5294168092739626,0.0,0.8823529411764188,0.6152761217980682,3.0933065985226813,14.85111506546568,0.0040032025620496,0.9475430017702527,0.059741651333443,0.6184138216298195,1.7264207294078324,0.0720576461168935,0.4783653846153846,0.4303312275887601,0.7154507206528539,1.412690588486966,0.7282688208505382,1.699673171197595,0.3704152082810796,23.0,20.0,19.0,0.387122861074393,0.0567112296819686,0.0623932837277612,0.1386109288497329,0.5139428301929121,0.2663136421539991,0.0186629817643744,0.4309973237211678,0.3248318999928726,0.1672745464317694,0.069956249551154,0.0069399656359425,-1.5492804586523847,-0.3974882738979915,1.016261848797641,-1.534511697205908,0.5720525351049395,-0.5104575462603744,1.0969699985613937,-0.0059867931100908,2.3672719417877666,3.513035268152748,1.1457633263649811,0.6,good,False,False,ambiguous_boundary,0.2914941663530297,0.9075084681972148,good_medium_boundary,0.2914941663530297,0.9075084681972148,0.5226740684983062,good_medium_overlap,0.4599531802785094,True,7133,added
7546,train,1,medium,100001,100,0.3233991946744337,0.3176872292578668,2.12152919948101,0.1445930833169492,0.2784,0.0512409927942353,0.0,0.1324315999438871,0.3635127060739924,0.0467890202999115,0.3962403506040569,0.8468659172122368,0.0148242737519725,0.134605517058392,0.5709845888823896,0.8326647349138744,25.0,89.0,6.4,5.455432881311473,6.2257298064659015,0.0238004872883411,3.39012901479879,0.0,1.0,1.0,0.783211630658349,0.4209416352582569,0.0152,1.0,0.369264716449295,0.0,0.923076923076852,0.6286275382488865,4.225675818794852,23.14242461861642,0.0016012810248198,0.97525230192653,0.1009251792797959,0.674014321753809,1.7730637223109638,0.2225780624499599,0.5825320512820513,0.5647060697158292,0.612983359221398,1.6043573557812272,0.505733028568009,2.0548046676563256,0.3273531727209285,25.0,20.0,23.0,0.2689362775957188,0.1769464779645204,0.0148242737519725,0.2417364201214698,0.4823713049506367,0.2319817042119755,0.0287736158080236,0.3121447560592611,0.3730481141679588,0.2415769512595521,0.0631905033139543,0.0100396659321499,-0.8085473941584794,-2.8416724026017324,2.8312169438638684,-0.6704729100340847,0.6595406321233642,0.4614910185404706,-1.5388547114611464,-0.3996254822848685,4.2421377286847255,5.470427612437113,1.228289883752388,0.8,good,False,False,ambiguous_boundary,0.3089951072638314,0.5179713963116297,good_medium_boundary,0.3089951072638314,0.5179713963116297,0.52264207753105,good_medium_overlap,0.4599250282273239,True,7134,added
23571,test,1,medium,111001,111,0.2548875778621999,0.2527392959256204,1.7209227180480955,0.1389640733043663,0.176,0.1160928742994395,0.0,0.2193433241832739,0.6687947653900433,0.0238890647888183,0.2613758608698834,1.094122996308858,0.0554265755583927,0.1635032968616647,0.4834067836840605,0.8471602303713686,21.0,80.0,5.9,5.519173444566662,7.435471666082244,0.0193026906886671,3.1553943849468014,0.0,0.0,0.7142857142857143,0.7484644276153807,0.3866675193380358,0.0152,1.0,0.3866675193380358,0.0,0.9166666666665902,0.5684091436092521,3.932789859644518,24.608639413749447,0.0024019215372297,0.91717348597126,0.0638771566501925,0.6539829970990484,1.8405918754798885,0.1048839071257005,0.4951923076923077,0.4655497642079313,0.6670134509948611,1.5660840727834973,0.5532926949644438,0.0,1.0,21.0,21.0,21.0,0.334358117455394,0.127258538547903,0.0554265755583927,0.2568247898999546,0.4055196143170984,0.2372546927861922,0.0448672415740177,0.4800971200303062,0.2097690034507628,0.2519142381151598,0.0480925268680689,0.0101270967770045,-1.230398563872534,-1.0603077813815005,-0.5105399237703744,-2.3838577683179407,-1.4761452354153115,1.2023054562597422,-1.1204692942700498,-0.3259957465652275,3.71285241276764,4.506935130133809,0.7940827173661686,0.8333333333333334,good,False,False,ambiguous_boundary,0.2244072261949567,0.6496989085434701,good_medium_boundary,0.2244072261949567,0.6496989085434701,0.5225897001630913,good_medium_overlap,0.4598789361435203,True,7135,added
