n,acc,macro_f1,good_recall,medium_recall,bad_recall,good_precision,medium_precision,bad_precision,support_good,support_medium,support_bad,rule,use_good_rescue,use_medium_guard,use_bad_stress,good_pc1_max,good_pc2_min,good_qrs_min,good_qrs_max,good_qv_max,good_nonq_max,good_lf_min,good_den3_max,med_pc1_min,med_qrs_min,med_qrs_max,med_qv_max,med_nonq_min,med_hf_min,med_spike_min,bad_pc2_min,bad_qv_max,bad_base_min,bad_qrs_max,bad_entropy_min,bad_diff_ratio_max
8477,0.8812079745192875,0.790671224159477,0.8516483516483516,0.9430637144148215,0.4768856447688564,0.9340162699608315,0.8518367346938776,0.7596899224806202,3640,4426,411,waveblock_00000,0.0,0.0,0.0,-4.8,8.0,3.0,5.2,0.12,0.026,0.68,0.03,-3.6,5.0,8.2,0.14,0.032,0.45,0.8,10.0,0.05,1.15,3.8,0.75,4.0
8477,0.8812079745192875,0.790671224159477,0.8516483516483516,0.9430637144148215,0.4768856447688564,0.9340162699608315,0.8518367346938776,0.7596899224806202,3640,4426,411,waveblock_00001,0.0,0.0,0.0,-4.8,8.0,3.0,5.2,0.12,0.026,0.68,0.03,-3.6,5.0,8.2,0.14,0.032,0.45,0.8,12.0,0.05,1.15,3.8,0.75,4.0
8477,0.8812079745192875,0.790671224159477,0.8516483516483516,0.9430637144148215,0.4768856447688564,0.9340162699608315,0.8518367346938776,0.7596899224806202,3640,4426,411,waveblock_00002,0.0,0.0,0.0,-4.8,8.0,3.0,5.2,0.12,0.026,0.68,0.03,-3.6,5.0,8.2,0.14,0.032,0.45,0.8,14.0,0.05,1.15,3.8,0.75,4.0
8477,0.8812079745192875,0.790671224159477,0.8516483516483516,0.9430637144148215,0.4768856447688564,0.9340162699608315,0.8518367346938776,0.7596899224806202,3640,4426,411,waveblock_00003,0.0,0.0,0.0,-4.8,8.0,3.0,5.2,0.12,0.026,0.68,0.03,-3.2,5.0,8.2,0.14,0.032,0.45,0.8,10.0,0.05,1.15,3.8,0.75,4.0
8477,0.8812079745192875,0.790671224159477,0.8516483516483516,0.9430637144148215,0.4768856447688564,0.9340162699608315,0.8518367346938776,0.7596899224806202,3640,4426,411,waveblock_00004,0.0,0.0,0.0,-4.8,8.0,3.0,5.2,0.12,0.026,0.68,0.03,-3.2,5.0,8.2,0.14,0.032,0.45,0.8,12.0,0.05,1.15,3.8,0.75,4.0
8477,0.8812079745192875,0.790671224159477,0.8516483516483516,0.9430637144148215,0.4768856447688564,0.9340162699608315,0.8518367346938776,0.7596899224806202,3640,4426,411,waveblock_00005,0.0,0.0,0.0,-4.8,8.0,3.0,5.2,0.12,0.026,0.68,0.03,-3.2,5.0,8.2,0.14,0.032,0.45,0.8,14.0,0.05,1.15,3.8,0.75,4.0
8477,0.8812079745192875,0.790671224159477,0.8516483516483516,0.9430637144148215,0.4768856447688564,0.9340162699608315,0.8518367346938776,0.7596899224806202,3640,4426,411,waveblock_00006,0.0,0.0,0.0,-4.8,8.0,3.0,5.2,0.12,0.026,0.68,0.03,-2.8,5.0,8.2,0.14,0.032,0.45,0.8,10.0,0.05,1.15,3.8,0.75,4.0
8477,0.8812079745192875,0.790671224159477,0.8516483516483516,0.9430637144148215,0.4768856447688564,0.9340162699608315,0.8518367346938776,0.7596899224806202,3640,4426,411,waveblock_00007,0.0,0.0,0.0,-4.8,8.0,3.0,5.2,0.12,0.026,0.68,0.03,-2.8,5.0,8.2,0.14,0.032,0.45,0.8,12.0,0.05,1.15,3.8,0.75,4.0
8477,0.8812079745192875,0.790671224159477,0.8516483516483516,0.9430637144148215,0.4768856447688564,0.9340162699608315,0.8518367346938776,0.7596899224806202,3640,4426,411,waveblock_00008,0.0,0.0,0.0,-4.8,8.0,3.0,5.2,0.12,0.026,0.68,0.03,-2.8,5.0,8.2,0.14,0.032,0.45,0.8,14.0,0.05,1.15,3.8,0.75,4.0
8477,0.8812079745192875,0.790671224159477,0.8516483516483516,0.9430637144148215,0.4768856447688564,0.9340162699608315,0.8518367346938776,0.7596899224806202,3640,4426,411,waveblock_00009,0.0,0.0,0.0,-4.8,10.0,3.0,5.2,0.12,0.026,0.68,0.03,-3.6,5.0,8.2,0.14,0.032,0.45,0.8,10.0,0.05,1.15,3.8,0.75,4.0
8477,0.8812079745192875,0.790671224159477,0.8516483516483516,0.9430637144148215,0.4768856447688564,0.9340162699608315,0.8518367346938776,0.7596899224806202,3640,4426,411,waveblock_00010,0.0,0.0,0.0,-4.8,10.0,3.0,5.2,0.12,0.026,0.68,0.03,-3.6,5.0,8.2,0.14,0.032,0.45,0.8,12.0,0.05,1.15,3.8,0.75,4.0
8477,0.8812079745192875,0.790671224159477,0.8516483516483516,0.9430637144148215,0.4768856447688564,0.9340162699608315,0.8518367346938776,0.7596899224806202,3640,4426,411,waveblock_00011,0.0,0.0,0.0,-4.8,10.0,3.0,5.2,0.12,0.026,0.68,0.03,-3.6,5.0,8.2,0.14,0.032,0.45,0.8,14.0,0.05,1.15,3.8,0.75,4.0
8477,0.8812079745192875,0.790671224159477,0.8516483516483516,0.9430637144148215,0.4768856447688564,0.9340162699608315,0.8518367346938776,0.7596899224806202,3640,4426,411,waveblock_00012,0.0,0.0,0.0,-4.8,10.0,3.0,5.2,0.12,0.026,0.68,0.03,-3.2,5.0,8.2,0.14,0.032,0.45,0.8,10.0,0.05,1.15,3.8,0.75,4.0
8477,0.8812079745192875,0.790671224159477,0.8516483516483516,0.9430637144148215,0.4768856447688564,0.9340162699608315,0.8518367346938776,0.7596899224806202,3640,4426,411,waveblock_00013,0.0,0.0,0.0,-4.8,10.0,3.0,5.2,0.12,0.026,0.68,0.03,-3.2,5.0,8.2,0.14,0.032,0.45,0.8,12.0,0.05,1.15,3.8,0.75,4.0
8477,0.8812079745192875,0.790671224159477,0.8516483516483516,0.9430637144148215,0.4768856447688564,0.9340162699608315,0.8518367346938776,0.7596899224806202,3640,4426,411,waveblock_00014,0.0,0.0,0.0,-4.8,10.0,3.0,5.2,0.12,0.026,0.68,0.03,-3.2,5.0,8.2,0.14,0.032,0.45,0.8,14.0,0.05,1.15,3.8,0.75,4.0
8477,0.8812079745192875,0.790671224159477,0.8516483516483516,0.9430637144148215,0.4768856447688564,0.9340162699608315,0.8518367346938776,0.7596899224806202,3640,4426,411,waveblock_00015,0.0,0.0,0.0,-4.8,10.0,3.0,5.2,0.12,0.026,0.68,0.03,-2.8,5.0,8.2,0.14,0.032,0.45,0.8,10.0,0.05,1.15,3.8,0.75,4.0
8477,0.8812079745192875,0.790671224159477,0.8516483516483516,0.9430637144148215,0.4768856447688564,0.9340162699608315,0.8518367346938776,0.7596899224806202,3640,4426,411,waveblock_00016,0.0,0.0,0.0,-4.8,10.0,3.0,5.2,0.12,0.026,0.68,0.03,-2.8,5.0,8.2,0.14,0.032,0.45,0.8,12.0,0.05,1.15,3.8,0.75,4.0
8477,0.8812079745192875,0.790671224159477,0.8516483516483516,0.9430637144148215,0.4768856447688564,0.9340162699608315,0.8518367346938776,0.7596899224806202,3640,4426,411,waveblock_00017,0.0,0.0,0.0,-4.8,10.0,3.0,5.2,0.12,0.026,0.68,0.03,-2.8,5.0,8.2,0.14,0.032,0.45,0.8,14.0,0.05,1.15,3.8,0.75,4.0
8477,0.8812079745192875,0.790671224159477,0.8516483516483516,0.9430637144148215,0.4768856447688564,0.9340162699608315,0.8518367346938776,0.7596899224806202,3640,4426,411,waveblock_00018,0.0,0.0,0.0,-4.8,12.0,3.0,5.2,0.12,0.026,0.68,0.03,-3.6,5.0,8.2,0.14,0.032,0.45,0.8,10.0,0.05,1.15,3.8,0.75,4.0
8477,0.8812079745192875,0.790671224159477,0.8516483516483516,0.9430637144148215,0.4768856447688564,0.9340162699608315,0.8518367346938776,0.7596899224806202,3640,4426,411,waveblock_00019,0.0,0.0,0.0,-4.8,12.0,3.0,5.2,0.12,0.026,0.68,0.03,-3.6,5.0,8.2,0.14,0.032,0.45,0.8,12.0,0.05,1.15,3.8,0.75,4.0
8477,0.8812079745192875,0.790671224159477,0.8516483516483516,0.9430637144148215,0.4768856447688564,0.9340162699608315,0.8518367346938776,0.7596899224806202,3640,4426,411,waveblock_00020,0.0,0.0,0.0,-4.8,12.0,3.0,5.2,0.12,0.026,0.68,0.03,-3.6,5.0,8.2,0.14,0.032,0.45,0.8,14.0,0.05,1.15,3.8,0.75,4.0
8477,0.8812079745192875,0.790671224159477,0.8516483516483516,0.9430637144148215,0.4768856447688564,0.9340162699608315,0.8518367346938776,0.7596899224806202,3640,4426,411,waveblock_00021,0.0,0.0,0.0,-4.8,12.0,3.0,5.2,0.12,0.026,0.68,0.03,-3.2,5.0,8.2,0.14,0.032,0.45,0.8,10.0,0.05,1.15,3.8,0.75,4.0
8477,0.8812079745192875,0.790671224159477,0.8516483516483516,0.9430637144148215,0.4768856447688564,0.9340162699608315,0.8518367346938776,0.7596899224806202,3640,4426,411,waveblock_00022,0.0,0.0,0.0,-4.8,12.0,3.0,5.2,0.12,0.026,0.68,0.03,-3.2,5.0,8.2,0.14,0.032,0.45,0.8,12.0,0.05,1.15,3.8,0.75,4.0
8477,0.8812079745192875,0.790671224159477,0.8516483516483516,0.9430637144148215,0.4768856447688564,0.9340162699608315,0.8518367346938776,0.7596899224806202,3640,4426,411,waveblock_00023,0.0,0.0,0.0,-4.8,12.0,3.0,5.2,0.12,0.026,0.68,0.03,-3.2,5.0,8.2,0.14,0.032,0.45,0.8,14.0,0.05,1.15,3.8,0.75,4.0
8477,0.8812079745192875,0.790671224159477,0.8516483516483516,0.9430637144148215,0.4768856447688564,0.9340162699608315,0.8518367346938776,0.7596899224806202,3640,4426,411,waveblock_00024,0.0,0.0,0.0,-4.8,12.0,3.0,5.2,0.12,0.026,0.68,0.03,-2.8,5.0,8.2,0.14,0.032,0.45,0.8,10.0,0.05,1.15,3.8,0.75,4.0
8477,0.8812079745192875,0.790671224159477,0.8516483516483516,0.9430637144148215,0.4768856447688564,0.9340162699608315,0.8518367346938776,0.7596899224806202,3640,4426,411,waveblock_00025,0.0,0.0,0.0,-4.8,12.0,3.0,5.2,0.12,0.026,0.68,0.03,-2.8,5.0,8.2,0.14,0.032,0.45,0.8,12.0,0.05,1.15,3.8,0.75,4.0
8477,0.8812079745192875,0.790671224159477,0.8516483516483516,0.9430637144148215,0.4768856447688564,0.9340162699608315,0.8518367346938776,0.7596899224806202,3640,4426,411,waveblock_00026,0.0,0.0,0.0,-4.8,12.0,3.0,5.2,0.12,0.026,0.68,0.03,-2.8,5.0,8.2,0.14,0.032,0.45,0.8,14.0,0.05,1.15,3.8,0.75,4.0
8477,0.8812079745192875,0.790671224159477,0.8516483516483516,0.9430637144148215,0.4768856447688564,0.9340162699608315,0.8518367346938776,0.7596899224806202,3640,4426,411,waveblock_00027,0.0,0.0,0.0,-4.4,8.0,3.0,5.2,0.12,0.026,0.68,0.03,-3.6,5.0,8.2,0.14,0.032,0.45,0.8,10.0,0.05,1.15,3.8,0.75,4.0
8477,0.8812079745192875,0.790671224159477,0.8516483516483516,0.9430637144148215,0.4768856447688564,0.9340162699608315,0.8518367346938776,0.7596899224806202,3640,4426,411,waveblock_00028,0.0,0.0,0.0,-4.4,8.0,3.0,5.2,0.12,0.026,0.68,0.03,-3.6,5.0,8.2,0.14,0.032,0.45,0.8,12.0,0.05,1.15,3.8,0.75,4.0
8477,0.8812079745192875,0.790671224159477,0.8516483516483516,0.9430637144148215,0.4768856447688564,0.9340162699608315,0.8518367346938776,0.7596899224806202,3640,4426,411,waveblock_00029,0.0,0.0,0.0,-4.4,8.0,3.0,5.2,0.12,0.026,0.68,0.03,-3.6,5.0,8.2,0.14,0.032,0.45,0.8,14.0,0.05,1.15,3.8,0.75,4.0
8477,0.8812079745192875,0.790671224159477,0.8516483516483516,0.9430637144148215,0.4768856447688564,0.9340162699608315,0.8518367346938776,0.7596899224806202,3640,4426,411,waveblock_00030,0.0,0.0,0.0,-4.4,8.0,3.0,5.2,0.12,0.026,0.68,0.03,-3.2,5.0,8.2,0.14,0.032,0.45,0.8,10.0,0.05,1.15,3.8,0.75,4.0
8477,0.8812079745192875,0.790671224159477,0.8516483516483516,0.9430637144148215,0.4768856447688564,0.9340162699608315,0.8518367346938776,0.7596899224806202,3640,4426,411,waveblock_00031,0.0,0.0,0.0,-4.4,8.0,3.0,5.2,0.12,0.026,0.68,0.03,-3.2,5.0,8.2,0.14,0.032,0.45,0.8,12.0,0.05,1.15,3.8,0.75,4.0
8477,0.8812079745192875,0.790671224159477,0.8516483516483516,0.9430637144148215,0.4768856447688564,0.9340162699608315,0.8518367346938776,0.7596899224806202,3640,4426,411,waveblock_00032,0.0,0.0,0.0,-4.4,8.0,3.0,5.2,0.12,0.026,0.68,0.03,-3.2,5.0,8.2,0.14,0.032,0.45,0.8,14.0,0.05,1.15,3.8,0.75,4.0
8477,0.8812079745192875,0.790671224159477,0.8516483516483516,0.9430637144148215,0.4768856447688564,0.9340162699608315,0.8518367346938776,0.7596899224806202,3640,4426,411,waveblock_00033,0.0,0.0,0.0,-4.4,8.0,3.0,5.2,0.12,0.026,0.68,0.03,-2.8,5.0,8.2,0.14,0.032,0.45,0.8,10.0,0.05,1.15,3.8,0.75,4.0
8477,0.8812079745192875,0.790671224159477,0.8516483516483516,0.9430637144148215,0.4768856447688564,0.9340162699608315,0.8518367346938776,0.7596899224806202,3640,4426,411,waveblock_00034,0.0,0.0,0.0,-4.4,8.0,3.0,5.2,0.12,0.026,0.68,0.03,-2.8,5.0,8.2,0.14,0.032,0.45,0.8,12.0,0.05,1.15,3.8,0.75,4.0
8477,0.8812079745192875,0.790671224159477,0.8516483516483516,0.9430637144148215,0.4768856447688564,0.9340162699608315,0.8518367346938776,0.7596899224806202,3640,4426,411,waveblock_00035,0.0,0.0,0.0,-4.4,8.0,3.0,5.2,0.12,0.026,0.68,0.03,-2.8,5.0,8.2,0.14,0.032,0.45,0.8,14.0,0.05,1.15,3.8,0.75,4.0
8477,0.8812079745192875,0.790671224159477,0.8516483516483516,0.9430637144148215,0.4768856447688564,0.9340162699608315,0.8518367346938776,0.7596899224806202,3640,4426,411,waveblock_00036,0.0,0.0,0.0,-4.4,10.0,3.0,5.2,0.12,0.026,0.68,0.03,-3.6,5.0,8.2,0.14,0.032,0.45,0.8,10.0,0.05,1.15,3.8,0.75,4.0
8477,0.8812079745192875,0.790671224159477,0.8516483516483516,0.9430637144148215,0.4768856447688564,0.9340162699608315,0.8518367346938776,0.7596899224806202,3640,4426,411,waveblock_00037,0.0,0.0,0.0,-4.4,10.0,3.0,5.2,0.12,0.026,0.68,0.03,-3.6,5.0,8.2,0.14,0.032,0.45,0.8,12.0,0.05,1.15,3.8,0.75,4.0
8477,0.8812079745192875,0.790671224159477,0.8516483516483516,0.9430637144148215,0.4768856447688564,0.9340162699608315,0.8518367346938776,0.7596899224806202,3640,4426,411,waveblock_00038,0.0,0.0,0.0,-4.4,10.0,3.0,5.2,0.12,0.026,0.68,0.03,-3.6,5.0,8.2,0.14,0.032,0.45,0.8,14.0,0.05,1.15,3.8,0.75,4.0
8477,0.8812079745192875,0.790671224159477,0.8516483516483516,0.9430637144148215,0.4768856447688564,0.9340162699608315,0.8518367346938776,0.7596899224806202,3640,4426,411,waveblock_00039,0.0,0.0,0.0,-4.4,10.0,3.0,5.2,0.12,0.026,0.68,0.03,-3.2,5.0,8.2,0.14,0.032,0.45,0.8,10.0,0.05,1.15,3.8,0.75,4.0
8477,0.8812079745192875,0.790671224159477,0.8516483516483516,0.9430637144148215,0.4768856447688564,0.9340162699608315,0.8518367346938776,0.7596899224806202,3640,4426,411,waveblock_00040,0.0,0.0,0.0,-4.4,10.0,3.0,5.2,0.12,0.026,0.68,0.03,-3.2,5.0,8.2,0.14,0.032,0.45,0.8,12.0,0.05,1.15,3.8,0.75,4.0
8477,0.8812079745192875,0.790671224159477,0.8516483516483516,0.9430637144148215,0.4768856447688564,0.9340162699608315,0.8518367346938776,0.7596899224806202,3640,4426,411,waveblock_00041,0.0,0.0,0.0,-4.4,10.0,3.0,5.2,0.12,0.026,0.68,0.03,-3.2,5.0,8.2,0.14,0.032,0.45,0.8,14.0,0.05,1.15,3.8,0.75,4.0
8477,0.8812079745192875,0.790671224159477,0.8516483516483516,0.9430637144148215,0.4768856447688564,0.9340162699608315,0.8518367346938776,0.7596899224806202,3640,4426,411,waveblock_00042,0.0,0.0,0.0,-4.4,10.0,3.0,5.2,0.12,0.026,0.68,0.03,-2.8,5.0,8.2,0.14,0.032,0.45,0.8,10.0,0.05,1.15,3.8,0.75,4.0
8477,0.8812079745192875,0.790671224159477,0.8516483516483516,0.9430637144148215,0.4768856447688564,0.9340162699608315,0.8518367346938776,0.7596899224806202,3640,4426,411,waveblock_00043,0.0,0.0,0.0,-4.4,10.0,3.0,5.2,0.12,0.026,0.68,0.03,-2.8,5.0,8.2,0.14,0.032,0.45,0.8,12.0,0.05,1.15,3.8,0.75,4.0
8477,0.8812079745192875,0.790671224159477,0.8516483516483516,0.9430637144148215,0.4768856447688564,0.9340162699608315,0.8518367346938776,0.7596899224806202,3640,4426,411,waveblock_00044,0.0,0.0,0.0,-4.4,10.0,3.0,5.2,0.12,0.026,0.68,0.03,-2.8,5.0,8.2,0.14,0.032,0.45,0.8,14.0,0.05,1.15,3.8,0.75,4.0
8477,0.8812079745192875,0.790671224159477,0.8516483516483516,0.9430637144148215,0.4768856447688564,0.9340162699608315,0.8518367346938776,0.7596899224806202,3640,4426,411,waveblock_00045,0.0,0.0,0.0,-4.4,12.0,3.0,5.2,0.12,0.026,0.68,0.03,-3.6,5.0,8.2,0.14,0.032,0.45,0.8,10.0,0.05,1.15,3.8,0.75,4.0
8477,0.8812079745192875,0.790671224159477,0.8516483516483516,0.9430637144148215,0.4768856447688564,0.9340162699608315,0.8518367346938776,0.7596899224806202,3640,4426,411,waveblock_00046,0.0,0.0,0.0,-4.4,12.0,3.0,5.2,0.12,0.026,0.68,0.03,-3.6,5.0,8.2,0.14,0.032,0.45,0.8,12.0,0.05,1.15,3.8,0.75,4.0
8477,0.8812079745192875,0.790671224159477,0.8516483516483516,0.9430637144148215,0.4768856447688564,0.9340162699608315,0.8518367346938776,0.7596899224806202,3640,4426,411,waveblock_00047,0.0,0.0,0.0,-4.4,12.0,3.0,5.2,0.12,0.026,0.68,0.03,-3.6,5.0,8.2,0.14,0.032,0.45,0.8,14.0,0.05,1.15,3.8,0.75,4.0
8477,0.8812079745192875,0.790671224159477,0.8516483516483516,0.9430637144148215,0.4768856447688564,0.9340162699608315,0.8518367346938776,0.7596899224806202,3640,4426,411,waveblock_00048,0.0,0.0,0.0,-4.4,12.0,3.0,5.2,0.12,0.026,0.68,0.03,-3.2,5.0,8.2,0.14,0.032,0.45,0.8,10.0,0.05,1.15,3.8,0.75,4.0
8477,0.8812079745192875,0.790671224159477,0.8516483516483516,0.9430637144148215,0.4768856447688564,0.9340162699608315,0.8518367346938776,0.7596899224806202,3640,4426,411,waveblock_00049,0.0,0.0,0.0,-4.4,12.0,3.0,5.2,0.12,0.026,0.68,0.03,-3.2,5.0,8.2,0.14,0.032,0.45,0.8,12.0,0.05,1.15,3.8,0.75,4.0
8477,0.8812079745192875,0.790671224159477,0.8516483516483516,0.9430637144148215,0.4768856447688564,0.9340162699608315,0.8518367346938776,0.7596899224806202,3640,4426,411,waveblock_00050,0.0,0.0,0.0,-4.4,12.0,3.0,5.2,0.12,0.026,0.68,0.03,-3.2,5.0,8.2,0.14,0.032,0.45,0.8,14.0,0.05,1.15,3.8,0.75,4.0
8477,0.8812079745192875,0.790671224159477,0.8516483516483516,0.9430637144148215,0.4768856447688564,0.9340162699608315,0.8518367346938776,0.7596899224806202,3640,4426,411,waveblock_00051,0.0,0.0,0.0,-4.4,12.0,3.0,5.2,0.12,0.026,0.68,0.03,-2.8,5.0,8.2,0.14,0.032,0.45,0.8,10.0,0.05,1.15,3.8,0.75,4.0
8477,0.8812079745192875,0.790671224159477,0.8516483516483516,0.9430637144148215,0.4768856447688564,0.9340162699608315,0.8518367346938776,0.7596899224806202,3640,4426,411,waveblock_00052,0.0,0.0,0.0,-4.4,12.0,3.0,5.2,0.12,0.026,0.68,0.03,-2.8,5.0,8.2,0.14,0.032,0.45,0.8,12.0,0.05,1.15,3.8,0.75,4.0
8477,0.8812079745192875,0.790671224159477,0.8516483516483516,0.9430637144148215,0.4768856447688564,0.9340162699608315,0.8518367346938776,0.7596899224806202,3640,4426,411,waveblock_00053,0.0,0.0,0.0,-4.4,12.0,3.0,5.2,0.12,0.026,0.68,0.03,-2.8,5.0,8.2,0.14,0.032,0.45,0.8,14.0,0.05,1.15,3.8,0.75,4.0
8477,0.8812079745192875,0.790671224159477,0.8516483516483516,0.9430637144148215,0.4768856447688564,0.9340162699608315,0.8518367346938776,0.7596899224806202,3640,4426,411,waveblock_00054,0.0,0.0,0.0,-4.0,8.0,3.0,5.2,0.12,0.026,0.68,0.03,-3.6,5.0,8.2,0.14,0.032,0.45,0.8,10.0,0.05,1.15,3.8,0.75,4.0
8477,0.8812079745192875,0.790671224159477,0.8516483516483516,0.9430637144148215,0.4768856447688564,0.9340162699608315,0.8518367346938776,0.7596899224806202,3640,4426,411,waveblock_00055,0.0,0.0,0.0,-4.0,8.0,3.0,5.2,0.12,0.026,0.68,0.03,-3.6,5.0,8.2,0.14,0.032,0.45,0.8,12.0,0.05,1.15,3.8,0.75,4.0
8477,0.8812079745192875,0.790671224159477,0.8516483516483516,0.9430637144148215,0.4768856447688564,0.9340162699608315,0.8518367346938776,0.7596899224806202,3640,4426,411,waveblock_00056,0.0,0.0,0.0,-4.0,8.0,3.0,5.2,0.12,0.026,0.68,0.03,-3.6,5.0,8.2,0.14,0.032,0.45,0.8,14.0,0.05,1.15,3.8,0.75,4.0
8477,0.8812079745192875,0.790671224159477,0.8516483516483516,0.9430637144148215,0.4768856447688564,0.9340162699608315,0.8518367346938776,0.7596899224806202,3640,4426,411,waveblock_00057,0.0,0.0,0.0,-4.0,8.0,3.0,5.2,0.12,0.026,0.68,0.03,-3.2,5.0,8.2,0.14,0.032,0.45,0.8,10.0,0.05,1.15,3.8,0.75,4.0
8477,0.8812079745192875,0.790671224159477,0.8516483516483516,0.9430637144148215,0.4768856447688564,0.9340162699608315,0.8518367346938776,0.7596899224806202,3640,4426,411,waveblock_00058,0.0,0.0,0.0,-4.0,8.0,3.0,5.2,0.12,0.026,0.68,0.03,-3.2,5.0,8.2,0.14,0.032,0.45,0.8,12.0,0.05,1.15,3.8,0.75,4.0
8477,0.8812079745192875,0.790671224159477,0.8516483516483516,0.9430637144148215,0.4768856447688564,0.9340162699608315,0.8518367346938776,0.7596899224806202,3640,4426,411,waveblock_00059,0.0,0.0,0.0,-4.0,8.0,3.0,5.2,0.12,0.026,0.68,0.03,-3.2,5.0,8.2,0.14,0.032,0.45,0.8,14.0,0.05,1.15,3.8,0.75,4.0
8477,0.8812079745192875,0.790671224159477,0.8516483516483516,0.9430637144148215,0.4768856447688564,0.9340162699608315,0.8518367346938776,0.7596899224806202,3640,4426,411,waveblock_00060,0.0,0.0,0.0,-4.0,8.0,3.0,5.2,0.12,0.026,0.68,0.03,-2.8,5.0,8.2,0.14,0.032,0.45,0.8,10.0,0.05,1.15,3.8,0.75,4.0
8477,0.8812079745192875,0.790671224159477,0.8516483516483516,0.9430637144148215,0.4768856447688564,0.9340162699608315,0.8518367346938776,0.7596899224806202,3640,4426,411,waveblock_00061,0.0,0.0,0.0,-4.0,8.0,3.0,5.2,0.12,0.026,0.68,0.03,-2.8,5.0,8.2,0.14,0.032,0.45,0.8,12.0,0.05,1.15,3.8,0.75,4.0
8477,0.8812079745192875,0.790671224159477,0.8516483516483516,0.9430637144148215,0.4768856447688564,0.9340162699608315,0.8518367346938776,0.7596899224806202,3640,4426,411,waveblock_00062,0.0,0.0,0.0,-4.0,8.0,3.0,5.2,0.12,0.026,0.68,0.03,-2.8,5.0,8.2,0.14,0.032,0.45,0.8,14.0,0.05,1.15,3.8,0.75,4.0
8477,0.8812079745192875,0.790671224159477,0.8516483516483516,0.9430637144148215,0.4768856447688564,0.9340162699608315,0.8518367346938776,0.7596899224806202,3640,4426,411,waveblock_00063,0.0,0.0,0.0,-4.0,10.0,3.0,5.2,0.12,0.026,0.68,0.03,-3.6,5.0,8.2,0.14,0.032,0.45,0.8,10.0,0.05,1.15,3.8,0.75,4.0
8477,0.8812079745192875,0.790671224159477,0.8516483516483516,0.9430637144148215,0.4768856447688564,0.9340162699608315,0.8518367346938776,0.7596899224806202,3640,4426,411,waveblock_00064,0.0,0.0,0.0,-4.0,10.0,3.0,5.2,0.12,0.026,0.68,0.03,-3.6,5.0,8.2,0.14,0.032,0.45,0.8,12.0,0.05,1.15,3.8,0.75,4.0
8477,0.8812079745192875,0.790671224159477,0.8516483516483516,0.9430637144148215,0.4768856447688564,0.9340162699608315,0.8518367346938776,0.7596899224806202,3640,4426,411,waveblock_00065,0.0,0.0,0.0,-4.0,10.0,3.0,5.2,0.12,0.026,0.68,0.03,-3.6,5.0,8.2,0.14,0.032,0.45,0.8,14.0,0.05,1.15,3.8,0.75,4.0
8477,0.8812079745192875,0.790671224159477,0.8516483516483516,0.9430637144148215,0.4768856447688564,0.9340162699608315,0.8518367346938776,0.7596899224806202,3640,4426,411,waveblock_00066,0.0,0.0,0.0,-4.0,10.0,3.0,5.2,0.12,0.026,0.68,0.03,-3.2,5.0,8.2,0.14,0.032,0.45,0.8,10.0,0.05,1.15,3.8,0.75,4.0
8477,0.8812079745192875,0.790671224159477,0.8516483516483516,0.9430637144148215,0.4768856447688564,0.9340162699608315,0.8518367346938776,0.7596899224806202,3640,4426,411,waveblock_00067,0.0,0.0,0.0,-4.0,10.0,3.0,5.2,0.12,0.026,0.68,0.03,-3.2,5.0,8.2,0.14,0.032,0.45,0.8,12.0,0.05,1.15,3.8,0.75,4.0
8477,0.8812079745192875,0.790671224159477,0.8516483516483516,0.9430637144148215,0.4768856447688564,0.9340162699608315,0.8518367346938776,0.7596899224806202,3640,4426,411,waveblock_00068,0.0,0.0,0.0,-4.0,10.0,3.0,5.2,0.12,0.026,0.68,0.03,-3.2,5.0,8.2,0.14,0.032,0.45,0.8,14.0,0.05,1.15,3.8,0.75,4.0
8477,0.8812079745192875,0.790671224159477,0.8516483516483516,0.9430637144148215,0.4768856447688564,0.9340162699608315,0.8518367346938776,0.7596899224806202,3640,4426,411,waveblock_00069,0.0,0.0,0.0,-4.0,10.0,3.0,5.2,0.12,0.026,0.68,0.03,-2.8,5.0,8.2,0.14,0.032,0.45,0.8,10.0,0.05,1.15,3.8,0.75,4.0
8477,0.8812079745192875,0.790671224159477,0.8516483516483516,0.9430637144148215,0.4768856447688564,0.9340162699608315,0.8518367346938776,0.7596899224806202,3640,4426,411,waveblock_00070,0.0,0.0,0.0,-4.0,10.0,3.0,5.2,0.12,0.026,0.68,0.03,-2.8,5.0,8.2,0.14,0.032,0.45,0.8,12.0,0.05,1.15,3.8,0.75,4.0
8477,0.8812079745192875,0.790671224159477,0.8516483516483516,0.9430637144148215,0.4768856447688564,0.9340162699608315,0.8518367346938776,0.7596899224806202,3640,4426,411,waveblock_00071,0.0,0.0,0.0,-4.0,10.0,3.0,5.2,0.12,0.026,0.68,0.03,-2.8,5.0,8.2,0.14,0.032,0.45,0.8,14.0,0.05,1.15,3.8,0.75,4.0
8477,0.8812079745192875,0.790671224159477,0.8516483516483516,0.9430637144148215,0.4768856447688564,0.9340162699608315,0.8518367346938776,0.7596899224806202,3640,4426,411,waveblock_00072,0.0,0.0,0.0,-4.0,12.0,3.0,5.2,0.12,0.026,0.68,0.03,-3.6,5.0,8.2,0.14,0.032,0.45,0.8,10.0,0.05,1.15,3.8,0.75,4.0
8477,0.8812079745192875,0.790671224159477,0.8516483516483516,0.9430637144148215,0.4768856447688564,0.9340162699608315,0.8518367346938776,0.7596899224806202,3640,4426,411,waveblock_00073,0.0,0.0,0.0,-4.0,12.0,3.0,5.2,0.12,0.026,0.68,0.03,-3.6,5.0,8.2,0.14,0.032,0.45,0.8,12.0,0.05,1.15,3.8,0.75,4.0
8477,0.8812079745192875,0.790671224159477,0.8516483516483516,0.9430637144148215,0.4768856447688564,0.9340162699608315,0.8518367346938776,0.7596899224806202,3640,4426,411,waveblock_00074,0.0,0.0,0.0,-4.0,12.0,3.0,5.2,0.12,0.026,0.68,0.03,-3.6,5.0,8.2,0.14,0.032,0.45,0.8,14.0,0.05,1.15,3.8,0.75,4.0
8477,0.8812079745192875,0.790671224159477,0.8516483516483516,0.9430637144148215,0.4768856447688564,0.9340162699608315,0.8518367346938776,0.7596899224806202,3640,4426,411,waveblock_00075,0.0,0.0,0.0,-4.0,12.0,3.0,5.2,0.12,0.026,0.68,0.03,-3.2,5.0,8.2,0.14,0.032,0.45,0.8,10.0,0.05,1.15,3.8,0.75,4.0
8477,0.8812079745192875,0.790671224159477,0.8516483516483516,0.9430637144148215,0.4768856447688564,0.9340162699608315,0.8518367346938776,0.7596899224806202,3640,4426,411,waveblock_00076,0.0,0.0,0.0,-4.0,12.0,3.0,5.2,0.12,0.026,0.68,0.03,-3.2,5.0,8.2,0.14,0.032,0.45,0.8,12.0,0.05,1.15,3.8,0.75,4.0
8477,0.8812079745192875,0.790671224159477,0.8516483516483516,0.9430637144148215,0.4768856447688564,0.9340162699608315,0.8518367346938776,0.7596899224806202,3640,4426,411,waveblock_00077,0.0,0.0,0.0,-4.0,12.0,3.0,5.2,0.12,0.026,0.68,0.03,-3.2,5.0,8.2,0.14,0.032,0.45,0.8,14.0,0.05,1.15,3.8,0.75,4.0
8477,0.8812079745192875,0.790671224159477,0.8516483516483516,0.9430637144148215,0.4768856447688564,0.9340162699608315,0.8518367346938776,0.7596899224806202,3640,4426,411,waveblock_00078,0.0,0.0,0.0,-4.0,12.0,3.0,5.2,0.12,0.026,0.68,0.03,-2.8,5.0,8.2,0.14,0.032,0.45,0.8,10.0,0.05,1.15,3.8,0.75,4.0
8477,0.8812079745192875,0.790671224159477,0.8516483516483516,0.9430637144148215,0.4768856447688564,0.9340162699608315,0.8518367346938776,0.7596899224806202,3640,4426,411,waveblock_00079,0.0,0.0,0.0,-4.0,12.0,3.0,5.2,0.12,0.026,0.68,0.03,-2.8,5.0,8.2,0.14,0.032,0.45,0.8,12.0,0.05,1.15,3.8,0.75,4.0
8477,0.8812079745192875,0.790671224159477,0.8516483516483516,0.9430637144148215,0.4768856447688564,0.9340162699608315,0.8518367346938776,0.7596899224806202,3640,4426,411,waveblock_00080,0.0,0.0,0.0,-4.0,12.0,3.0,5.2,0.12,0.026,0.68,0.03,-2.8,5.0,8.2,0.14,0.032,0.45,0.8,14.0,0.05,1.15,3.8,0.75,4.0
8477,0.8812079745192875,0.790671224159477,0.8516483516483516,0.9430637144148215,0.4768856447688564,0.9340162699608315,0.8518367346938776,0.7596899224806202,3640,4426,411,waveblock_00081,0.0,0.0,0.0,-3.6,8.0,3.0,5.2,0.12,0.026,0.68,0.03,-3.6,5.0,8.2,0.14,0.032,0.45,0.8,10.0,0.05,1.15,3.8,0.75,4.0
8477,0.8812079745192875,0.790671224159477,0.8516483516483516,0.9430637144148215,0.4768856447688564,0.9340162699608315,0.8518367346938776,0.7596899224806202,3640,4426,411,waveblock_00082,0.0,0.0,0.0,-3.6,8.0,3.0,5.2,0.12,0.026,0.68,0.03,-3.6,5.0,8.2,0.14,0.032,0.45,0.8,12.0,0.05,1.15,3.8,0.75,4.0
8477,0.8812079745192875,0.790671224159477,0.8516483516483516,0.9430637144148215,0.4768856447688564,0.9340162699608315,0.8518367346938776,0.7596899224806202,3640,4426,411,waveblock_00083,0.0,0.0,0.0,-3.6,8.0,3.0,5.2,0.12,0.026,0.68,0.03,-3.6,5.0,8.2,0.14,0.032,0.45,0.8,14.0,0.05,1.15,3.8,0.75,4.0
8477,0.8812079745192875,0.790671224159477,0.8516483516483516,0.9430637144148215,0.4768856447688564,0.9340162699608315,0.8518367346938776,0.7596899224806202,3640,4426,411,waveblock_00084,0.0,0.0,0.0,-3.6,8.0,3.0,5.2,0.12,0.026,0.68,0.03,-3.2,5.0,8.2,0.14,0.032,0.45,0.8,10.0,0.05,1.15,3.8,0.75,4.0
8477,0.8812079745192875,0.790671224159477,0.8516483516483516,0.9430637144148215,0.4768856447688564,0.9340162699608315,0.8518367346938776,0.7596899224806202,3640,4426,411,waveblock_00085,0.0,0.0,0.0,-3.6,8.0,3.0,5.2,0.12,0.026,0.68,0.03,-3.2,5.0,8.2,0.14,0.032,0.45,0.8,12.0,0.05,1.15,3.8,0.75,4.0
8477,0.8812079745192875,0.790671224159477,0.8516483516483516,0.9430637144148215,0.4768856447688564,0.9340162699608315,0.8518367346938776,0.7596899224806202,3640,4426,411,waveblock_00086,0.0,0.0,0.0,-3.6,8.0,3.0,5.2,0.12,0.026,0.68,0.03,-3.2,5.0,8.2,0.14,0.032,0.45,0.8,14.0,0.05,1.15,3.8,0.75,4.0
8477,0.8812079745192875,0.790671224159477,0.8516483516483516,0.9430637144148215,0.4768856447688564,0.9340162699608315,0.8518367346938776,0.7596899224806202,3640,4426,411,waveblock_00087,0.0,0.0,0.0,-3.6,8.0,3.0,5.2,0.12,0.026,0.68,0.03,-2.8,5.0,8.2,0.14,0.032,0.45,0.8,10.0,0.05,1.15,3.8,0.75,4.0
8477,0.8812079745192875,0.790671224159477,0.8516483516483516,0.9430637144148215,0.4768856447688564,0.9340162699608315,0.8518367346938776,0.7596899224806202,3640,4426,411,waveblock_00088,0.0,0.0,0.0,-3.6,8.0,3.0,5.2,0.12,0.026,0.68,0.03,-2.8,5.0,8.2,0.14,0.032,0.45,0.8,12.0,0.05,1.15,3.8,0.75,4.0
8477,0.8812079745192875,0.790671224159477,0.8516483516483516,0.9430637144148215,0.4768856447688564,0.9340162699608315,0.8518367346938776,0.7596899224806202,3640,4426,411,waveblock_00089,0.0,0.0,0.0,-3.6,8.0,3.0,5.2,0.12,0.026,0.68,0.03,-2.8,5.0,8.2,0.14,0.032,0.45,0.8,14.0,0.05,1.15,3.8,0.75,4.0
8477,0.8812079745192875,0.790671224159477,0.8516483516483516,0.9430637144148215,0.4768856447688564,0.9340162699608315,0.8518367346938776,0.7596899224806202,3640,4426,411,waveblock_00090,0.0,0.0,0.0,-3.6,10.0,3.0,5.2,0.12,0.026,0.68,0.03,-3.6,5.0,8.2,0.14,0.032,0.45,0.8,10.0,0.05,1.15,3.8,0.75,4.0
8477,0.8812079745192875,0.790671224159477,0.8516483516483516,0.9430637144148215,0.4768856447688564,0.9340162699608315,0.8518367346938776,0.7596899224806202,3640,4426,411,waveblock_00091,0.0,0.0,0.0,-3.6,10.0,3.0,5.2,0.12,0.026,0.68,0.03,-3.6,5.0,8.2,0.14,0.032,0.45,0.8,12.0,0.05,1.15,3.8,0.75,4.0
8477,0.8812079745192875,0.790671224159477,0.8516483516483516,0.9430637144148215,0.4768856447688564,0.9340162699608315,0.8518367346938776,0.7596899224806202,3640,4426,411,waveblock_00092,0.0,0.0,0.0,-3.6,10.0,3.0,5.2,0.12,0.026,0.68,0.03,-3.6,5.0,8.2,0.14,0.032,0.45,0.8,14.0,0.05,1.15,3.8,0.75,4.0
8477,0.8812079745192875,0.790671224159477,0.8516483516483516,0.9430637144148215,0.4768856447688564,0.9340162699608315,0.8518367346938776,0.7596899224806202,3640,4426,411,waveblock_00093,0.0,0.0,0.0,-3.6,10.0,3.0,5.2,0.12,0.026,0.68,0.03,-3.2,5.0,8.2,0.14,0.032,0.45,0.8,10.0,0.05,1.15,3.8,0.75,4.0
8477,0.8812079745192875,0.790671224159477,0.8516483516483516,0.9430637144148215,0.4768856447688564,0.9340162699608315,0.8518367346938776,0.7596899224806202,3640,4426,411,waveblock_00094,0.0,0.0,0.0,-3.6,10.0,3.0,5.2,0.12,0.026,0.68,0.03,-3.2,5.0,8.2,0.14,0.032,0.45,0.8,12.0,0.05,1.15,3.8,0.75,4.0
8477,0.8812079745192875,0.790671224159477,0.8516483516483516,0.9430637144148215,0.4768856447688564,0.9340162699608315,0.8518367346938776,0.7596899224806202,3640,4426,411,waveblock_00095,0.0,0.0,0.0,-3.6,10.0,3.0,5.2,0.12,0.026,0.68,0.03,-3.2,5.0,8.2,0.14,0.032,0.45,0.8,14.0,0.05,1.15,3.8,0.75,4.0
8477,0.8812079745192875,0.790671224159477,0.8516483516483516,0.9430637144148215,0.4768856447688564,0.9340162699608315,0.8518367346938776,0.7596899224806202,3640,4426,411,waveblock_00096,0.0,0.0,0.0,-3.6,10.0,3.0,5.2,0.12,0.026,0.68,0.03,-2.8,5.0,8.2,0.14,0.032,0.45,0.8,10.0,0.05,1.15,3.8,0.75,4.0
8477,0.8812079745192875,0.790671224159477,0.8516483516483516,0.9430637144148215,0.4768856447688564,0.9340162699608315,0.8518367346938776,0.7596899224806202,3640,4426,411,waveblock_00097,0.0,0.0,0.0,-3.6,10.0,3.0,5.2,0.12,0.026,0.68,0.03,-2.8,5.0,8.2,0.14,0.032,0.45,0.8,12.0,0.05,1.15,3.8,0.75,4.0
8477,0.8812079745192875,0.790671224159477,0.8516483516483516,0.9430637144148215,0.4768856447688564,0.9340162699608315,0.8518367346938776,0.7596899224806202,3640,4426,411,waveblock_00098,0.0,0.0,0.0,-3.6,10.0,3.0,5.2,0.12,0.026,0.68,0.03,-2.8,5.0,8.2,0.14,0.032,0.45,0.8,14.0,0.05,1.15,3.8,0.75,4.0
8477,0.8812079745192875,0.790671224159477,0.8516483516483516,0.9430637144148215,0.4768856447688564,0.9340162699608315,0.8518367346938776,0.7596899224806202,3640,4426,411,waveblock_00099,0.0,0.0,0.0,-3.6,12.0,3.0,5.2,0.12,0.026,0.68,0.03,-3.6,5.0,8.2,0.14,0.032,0.45,0.8,10.0,0.05,1.15,3.8,0.75,4.0
8477,0.8812079745192875,0.790671224159477,0.8516483516483516,0.9430637144148215,0.4768856447688564,0.9340162699608315,0.8518367346938776,0.7596899224806202,3640,4426,411,waveblock_00100,0.0,0.0,0.0,-3.6,12.0,3.0,5.2,0.12,0.026,0.68,0.03,-3.6,5.0,8.2,0.14,0.032,0.45,0.8,12.0,0.05,1.15,3.8,0.75,4.0
8477,0.8812079745192875,0.790671224159477,0.8516483516483516,0.9430637144148215,0.4768856447688564,0.9340162699608315,0.8518367346938776,0.7596899224806202,3640,4426,411,waveblock_00101,0.0,0.0,0.0,-3.6,12.0,3.0,5.2,0.12,0.026,0.68,0.03,-3.6,5.0,8.2,0.14,0.032,0.45,0.8,14.0,0.05,1.15,3.8,0.75,4.0
8477,0.8812079745192875,0.790671224159477,0.8516483516483516,0.9430637144148215,0.4768856447688564,0.9340162699608315,0.8518367346938776,0.7596899224806202,3640,4426,411,waveblock_00102,0.0,0.0,0.0,-3.6,12.0,3.0,5.2,0.12,0.026,0.68,0.03,-3.2,5.0,8.2,0.14,0.032,0.45,0.8,10.0,0.05,1.15,3.8,0.75,4.0
8477,0.8812079745192875,0.790671224159477,0.8516483516483516,0.9430637144148215,0.4768856447688564,0.9340162699608315,0.8518367346938776,0.7596899224806202,3640,4426,411,waveblock_00103,0.0,0.0,0.0,-3.6,12.0,3.0,5.2,0.12,0.026,0.68,0.03,-3.2,5.0,8.2,0.14,0.032,0.45,0.8,12.0,0.05,1.15,3.8,0.75,4.0
8477,0.8812079745192875,0.790671224159477,0.8516483516483516,0.9430637144148215,0.4768856447688564,0.9340162699608315,0.8518367346938776,0.7596899224806202,3640,4426,411,waveblock_00104,0.0,0.0,0.0,-3.6,12.0,3.0,5.2,0.12,0.026,0.68,0.03,-3.2,5.0,8.2,0.14,0.032,0.45,0.8,14.0,0.05,1.15,3.8,0.75,4.0
8477,0.8812079745192875,0.790671224159477,0.8516483516483516,0.9430637144148215,0.4768856447688564,0.9340162699608315,0.8518367346938776,0.7596899224806202,3640,4426,411,waveblock_00105,0.0,0.0,0.0,-3.6,12.0,3.0,5.2,0.12,0.026,0.68,0.03,-2.8,5.0,8.2,0.14,0.032,0.45,0.8,10.0,0.05,1.15,3.8,0.75,4.0
8477,0.8812079745192875,0.790671224159477,0.8516483516483516,0.9430637144148215,0.4768856447688564,0.9340162699608315,0.8518367346938776,0.7596899224806202,3640,4426,411,waveblock_00106,0.0,0.0,0.0,-3.6,12.0,3.0,5.2,0.12,0.026,0.68,0.03,-2.8,5.0,8.2,0.14,0.032,0.45,0.8,12.0,0.05,1.15,3.8,0.75,4.0
8477,0.8812079745192875,0.790671224159477,0.8516483516483516,0.9430637144148215,0.4768856447688564,0.9340162699608315,0.8518367346938776,0.7596899224806202,3640,4426,411,waveblock_00107,0.0,0.0,0.0,-3.6,12.0,3.0,5.2,0.12,0.026,0.68,0.03,-2.8,5.0,8.2,0.14,0.032,0.45,0.8,14.0,0.05,1.15,3.8,0.75,4.0
8477,0.8213990798631592,0.7115619693109636,0.8516483516483516,0.8097605061003164,0.6788321167883211,0.9340162699608315,0.8482840236686391,0.2990353697749196,3640,4426,411,waveblock_00108,0.0,0.0,1.0,-4.8,8.0,3.0,5.2,0.12,0.026,0.68,0.03,-3.6,5.0,8.2,0.14,0.032,0.45,0.8,10.0,0.05,1.15,3.8,0.75,4.0
8477,0.8307184145334434,0.7209518032852363,0.8516483516483516,0.8298689561680976,0.6545012165450121,0.9340162699608315,0.8492485549132948,0.32292917166866747,3640,4426,411,waveblock_00109,0.0,0.0,1.0,-4.8,8.0,3.0,5.2,0.12,0.026,0.68,0.03,-3.6,5.0,8.2,0.14,0.032,0.45,0.8,12.0,0.05,1.15,3.8,0.75,4.0
8477,0.8420431756517636,0.7314554401350856,0.8516483516483516,0.8558517849073656,0.6082725060827251,0.9340162699608315,0.8493273542600897,0.35816618911174786,3640,4426,411,waveblock_00110,0.0,0.0,1.0,-4.8,8.0,3.0,5.2,0.12,0.026,0.68,0.03,-3.6,5.0,8.2,0.14,0.032,0.45,0.8,14.0,0.05,1.15,3.8,0.75,4.0
8477,0.8213990798631592,0.7115619693109636,0.8516483516483516,0.8097605061003164,0.6788321167883211,0.9340162699608315,0.8482840236686391,0.2990353697749196,3640,4426,411,waveblock_00111,0.0,0.0,1.0,-4.8,8.0,3.0,5.2,0.12,0.026,0.68,0.03,-3.2,5.0,8.2,0.14,0.032,0.45,0.8,10.0,0.05,1.15,3.8,0.75,4.0
8477,0.8307184145334434,0.7209518032852363,0.8516483516483516,0.8298689561680976,0.6545012165450121,0.9340162699608315,0.8492485549132948,0.32292917166866747,3640,4426,411,waveblock_00112,0.0,0.0,1.0,-4.8,8.0,3.0,5.2,0.12,0.026,0.68,0.03,-3.2,5.0,8.2,0.14,0.032,0.45,0.8,12.0,0.05,1.15,3.8,0.75,4.0
8477,0.8420431756517636,0.7314554401350856,0.8516483516483516,0.8558517849073656,0.6082725060827251,0.9340162699608315,0.8493273542600897,0.35816618911174786,3640,4426,411,waveblock_00113,0.0,0.0,1.0,-4.8,8.0,3.0,5.2,0.12,0.026,0.68,0.03,-3.2,5.0,8.2,0.14,0.032,0.45,0.8,14.0,0.05,1.15,3.8,0.75,4.0
8477,0.8213990798631592,0.7115619693109636,0.8516483516483516,0.8097605061003164,0.6788321167883211,0.9340162699608315,0.8482840236686391,0.2990353697749196,3640,4426,411,waveblock_00114,0.0,0.0,1.0,-4.8,8.0,3.0,5.2,0.12,0.026,0.68,0.03,-2.8,5.0,8.2,0.14,0.032,0.45,0.8,10.0,0.05,1.15,3.8,0.75,4.0
8477,0.8307184145334434,0.7209518032852363,0.8516483516483516,0.8298689561680976,0.6545012165450121,0.9340162699608315,0.8492485549132948,0.32292917166866747,3640,4426,411,waveblock_00115,0.0,0.0,1.0,-4.8,8.0,3.0,5.2,0.12,0.026,0.68,0.03,-2.8,5.0,8.2,0.14,0.032,0.45,0.8,12.0,0.05,1.15,3.8,0.75,4.0
8477,0.8420431756517636,0.7314554401350856,0.8516483516483516,0.8558517849073656,0.6082725060827251,0.9340162699608315,0.8493273542600897,0.35816618911174786,3640,4426,411,waveblock_00116,0.0,0.0,1.0,-4.8,8.0,3.0,5.2,0.12,0.026,0.68,0.03,-2.8,5.0,8.2,0.14,0.032,0.45,0.8,14.0,0.05,1.15,3.8,0.75,4.0
8477,0.8213990798631592,0.7115619693109636,0.8516483516483516,0.8097605061003164,0.6788321167883211,0.9340162699608315,0.8482840236686391,0.2990353697749196,3640,4426,411,waveblock_00117,0.0,0.0,1.0,-4.8,10.0,3.0,5.2,0.12,0.026,0.68,0.03,-3.6,5.0,8.2,0.14,0.032,0.45,0.8,10.0,0.05,1.15,3.8,0.75,4.0
8477,0.8307184145334434,0.7209518032852363,0.8516483516483516,0.8298689561680976,0.6545012165450121,0.9340162699608315,0.8492485549132948,0.32292917166866747,3640,4426,411,waveblock_00118,0.0,0.0,1.0,-4.8,10.0,3.0,5.2,0.12,0.026,0.68,0.03,-3.6,5.0,8.2,0.14,0.032,0.45,0.8,12.0,0.05,1.15,3.8,0.75,4.0
8477,0.8420431756517636,0.7314554401350856,0.8516483516483516,0.8558517849073656,0.6082725060827251,0.9340162699608315,0.8493273542600897,0.35816618911174786,3640,4426,411,waveblock_00119,0.0,0.0,1.0,-4.8,10.0,3.0,5.2,0.12,0.026,0.68,0.03,-3.6,5.0,8.2,0.14,0.032,0.45,0.8,14.0,0.05,1.15,3.8,0.75,4.0
8477,0.8213990798631592,0.7115619693109636,0.8516483516483516,0.8097605061003164,0.6788321167883211,0.9340162699608315,0.8482840236686391,0.2990353697749196,3640,4426,411,waveblock_00120,0.0,0.0,1.0,-4.8,10.0,3.0,5.2,0.12,0.026,0.68,0.03,-3.2,5.0,8.2,0.14,0.032,0.45,0.8,10.0,0.05,1.15,3.8,0.75,4.0
8477,0.8307184145334434,0.7209518032852363,0.8516483516483516,0.8298689561680976,0.6545012165450121,0.9340162699608315,0.8492485549132948,0.32292917166866747,3640,4426,411,waveblock_00121,0.0,0.0,1.0,-4.8,10.0,3.0,5.2,0.12,0.026,0.68,0.03,-3.2,5.0,8.2,0.14,0.032,0.45,0.8,12.0,0.05,1.15,3.8,0.75,4.0
8477,0.8420431756517636,0.7314554401350856,0.8516483516483516,0.8558517849073656,0.6082725060827251,0.9340162699608315,0.8493273542600897,0.35816618911174786,3640,4426,411,waveblock_00122,0.0,0.0,1.0,-4.8,10.0,3.0,5.2,0.12,0.026,0.68,0.03,-3.2,5.0,8.2,0.14,0.032,0.45,0.8,14.0,0.05,1.15,3.8,0.75,4.0
8477,0.8213990798631592,0.7115619693109636,0.8516483516483516,0.8097605061003164,0.6788321167883211,0.9340162699608315,0.8482840236686391,0.2990353697749196,3640,4426,411,waveblock_00123,0.0,0.0,1.0,-4.8,10.0,3.0,5.2,0.12,0.026,0.68,0.03,-2.8,5.0,8.2,0.14,0.032,0.45,0.8,10.0,0.05,1.15,3.8,0.75,4.0
8477,0.8307184145334434,0.7209518032852363,0.8516483516483516,0.8298689561680976,0.6545012165450121,0.9340162699608315,0.8492485549132948,0.32292917166866747,3640,4426,411,waveblock_00124,0.0,0.0,1.0,-4.8,10.0,3.0,5.2,0.12,0.026,0.68,0.03,-2.8,5.0,8.2,0.14,0.032,0.45,0.8,12.0,0.05,1.15,3.8,0.75,4.0
8477,0.8420431756517636,0.7314554401350856,0.8516483516483516,0.8558517849073656,0.6082725060827251,0.9340162699608315,0.8493273542600897,0.35816618911174786,3640,4426,411,waveblock_00125,0.0,0.0,1.0,-4.8,10.0,3.0,5.2,0.12,0.026,0.68,0.03,-2.8,5.0,8.2,0.14,0.032,0.45,0.8,14.0,0.05,1.15,3.8,0.75,4.0
8477,0.8213990798631592,0.7115619693109636,0.8516483516483516,0.8097605061003164,0.6788321167883211,0.9340162699608315,0.8482840236686391,0.2990353697749196,3640,4426,411,waveblock_00126,0.0,0.0,1.0,-4.8,12.0,3.0,5.2,0.12,0.026,0.68,0.03,-3.6,5.0,8.2,0.14,0.032,0.45,0.8,10.0,0.05,1.15,3.8,0.75,4.0
8477,0.8307184145334434,0.7209518032852363,0.8516483516483516,0.8298689561680976,0.6545012165450121,0.9340162699608315,0.8492485549132948,0.32292917166866747,3640,4426,411,waveblock_00127,0.0,0.0,1.0,-4.8,12.0,3.0,5.2,0.12,0.026,0.68,0.03,-3.6,5.0,8.2,0.14,0.032,0.45,0.8,12.0,0.05,1.15,3.8,0.75,4.0
8477,0.8420431756517636,0.7314554401350856,0.8516483516483516,0.8558517849073656,0.6082725060827251,0.9340162699608315,0.8493273542600897,0.35816618911174786,3640,4426,411,waveblock_00128,0.0,0.0,1.0,-4.8,12.0,3.0,5.2,0.12,0.026,0.68,0.03,-3.6,5.0,8.2,0.14,0.032,0.45,0.8,14.0,0.05,1.15,3.8,0.75,4.0
8477,0.8213990798631592,0.7115619693109636,0.8516483516483516,0.8097605061003164,0.6788321167883211,0.9340162699608315,0.8482840236686391,0.2990353697749196,3640,4426,411,waveblock_00129,0.0,0.0,1.0,-4.8,12.0,3.0,5.2,0.12,0.026,0.68,0.03,-3.2,5.0,8.2,0.14,0.032,0.45,0.8,10.0,0.05,1.15,3.8,0.75,4.0
8477,0.8307184145334434,0.7209518032852363,0.8516483516483516,0.8298689561680976,0.6545012165450121,0.9340162699608315,0.8492485549132948,0.32292917166866747,3640,4426,411,waveblock_00130,0.0,0.0,1.0,-4.8,12.0,3.0,5.2,0.12,0.026,0.68,0.03,-3.2,5.0,8.2,0.14,0.032,0.45,0.8,12.0,0.05,1.15,3.8,0.75,4.0
8477,0.8420431756517636,0.7314554401350856,0.8516483516483516,0.8558517849073656,0.6082725060827251,0.9340162699608315,0.8493273542600897,0.35816618911174786,3640,4426,411,waveblock_00131,0.0,0.0,1.0,-4.8,12.0,3.0,5.2,0.12,0.026,0.68,0.03,-3.2,5.0,8.2,0.14,0.032,0.45,0.8,14.0,0.05,1.15,3.8,0.75,4.0
8477,0.8213990798631592,0.7115619693109636,0.8516483516483516,0.8097605061003164,0.6788321167883211,0.9340162699608315,0.8482840236686391,0.2990353697749196,3640,4426,411,waveblock_00132,0.0,0.0,1.0,-4.8,12.0,3.0,5.2,0.12,0.026,0.68,0.03,-2.8,5.0,8.2,0.14,0.032,0.45,0.8,10.0,0.05,1.15,3.8,0.75,4.0
8477,0.8307184145334434,0.7209518032852363,0.8516483516483516,0.8298689561680976,0.6545012165450121,0.9340162699608315,0.8492485549132948,0.32292917166866747,3640,4426,411,waveblock_00133,0.0,0.0,1.0,-4.8,12.0,3.0,5.2,0.12,0.026,0.68,0.03,-2.8,5.0,8.2,0.14,0.032,0.45,0.8,12.0,0.05,1.15,3.8,0.75,4.0
8477,0.8420431756517636,0.7314554401350856,0.8516483516483516,0.8558517849073656,0.6082725060827251,0.9340162699608315,0.8493273542600897,0.35816618911174786,3640,4426,411,waveblock_00134,0.0,0.0,1.0,-4.8,12.0,3.0,5.2,0.12,0.026,0.68,0.03,-2.8,5.0,8.2,0.14,0.032,0.45,0.8,14.0,0.05,1.15,3.8,0.75,4.0
8477,0.8213990798631592,0.7115619693109636,0.8516483516483516,0.8097605061003164,0.6788321167883211,0.9340162699608315,0.8482840236686391,0.2990353697749196,3640,4426,411,waveblock_00135,0.0,0.0,1.0,-4.4,8.0,3.0,5.2,0.12,0.026,0.68,0.03,-3.6,5.0,8.2,0.14,0.032,0.45,0.8,10.0,0.05,1.15,3.8,0.75,4.0
8477,0.8307184145334434,0.7209518032852363,0.8516483516483516,0.8298689561680976,0.6545012165450121,0.9340162699608315,0.8492485549132948,0.32292917166866747,3640,4426,411,waveblock_00136,0.0,0.0,1.0,-4.4,8.0,3.0,5.2,0.12,0.026,0.68,0.03,-3.6,5.0,8.2,0.14,0.032,0.45,0.8,12.0,0.05,1.15,3.8,0.75,4.0
8477,0.8420431756517636,0.7314554401350856,0.8516483516483516,0.8558517849073656,0.6082725060827251,0.9340162699608315,0.8493273542600897,0.35816618911174786,3640,4426,411,waveblock_00137,0.0,0.0,1.0,-4.4,8.0,3.0,5.2,0.12,0.026,0.68,0.03,-3.6,5.0,8.2,0.14,0.032,0.45,0.8,14.0,0.05,1.15,3.8,0.75,4.0
8477,0.8213990798631592,0.7115619693109636,0.8516483516483516,0.8097605061003164,0.6788321167883211,0.9340162699608315,0.8482840236686391,0.2990353697749196,3640,4426,411,waveblock_00138,0.0,0.0,1.0,-4.4,8.0,3.0,5.2,0.12,0.026,0.68,0.03,-3.2,5.0,8.2,0.14,0.032,0.45,0.8,10.0,0.05,1.15,3.8,0.75,4.0
8477,0.8307184145334434,0.7209518032852363,0.8516483516483516,0.8298689561680976,0.6545012165450121,0.9340162699608315,0.8492485549132948,0.32292917166866747,3640,4426,411,waveblock_00139,0.0,0.0,1.0,-4.4,8.0,3.0,5.2,0.12,0.026,0.68,0.03,-3.2,5.0,8.2,0.14,0.032,0.45,0.8,12.0,0.05,1.15,3.8,0.75,4.0
8477,0.8420431756517636,0.7314554401350856,0.8516483516483516,0.8558517849073656,0.6082725060827251,0.9340162699608315,0.8493273542600897,0.35816618911174786,3640,4426,411,waveblock_00140,0.0,0.0,1.0,-4.4,8.0,3.0,5.2,0.12,0.026,0.68,0.03,-3.2,5.0,8.2,0.14,0.032,0.45,0.8,14.0,0.05,1.15,3.8,0.75,4.0
8477,0.8213990798631592,0.7115619693109636,0.8516483516483516,0.8097605061003164,0.6788321167883211,0.9340162699608315,0.8482840236686391,0.2990353697749196,3640,4426,411,waveblock_00141,0.0,0.0,1.0,-4.4,8.0,3.0,5.2,0.12,0.026,0.68,0.03,-2.8,5.0,8.2,0.14,0.032,0.45,0.8,10.0,0.05,1.15,3.8,0.75,4.0
8477,0.8307184145334434,0.7209518032852363,0.8516483516483516,0.8298689561680976,0.6545012165450121,0.9340162699608315,0.8492485549132948,0.32292917166866747,3640,4426,411,waveblock_00142,0.0,0.0,1.0,-4.4,8.0,3.0,5.2,0.12,0.026,0.68,0.03,-2.8,5.0,8.2,0.14,0.032,0.45,0.8,12.0,0.05,1.15,3.8,0.75,4.0
8477,0.8420431756517636,0.7314554401350856,0.8516483516483516,0.8558517849073656,0.6082725060827251,0.9340162699608315,0.8493273542600897,0.35816618911174786,3640,4426,411,waveblock_00143,0.0,0.0,1.0,-4.4,8.0,3.0,5.2,0.12,0.026,0.68,0.03,-2.8,5.0,8.2,0.14,0.032,0.45,0.8,14.0,0.05,1.15,3.8,0.75,4.0
8477,0.8213990798631592,0.7115619693109636,0.8516483516483516,0.8097605061003164,0.6788321167883211,0.9340162699608315,0.8482840236686391,0.2990353697749196,3640,4426,411,waveblock_00144,0.0,0.0,1.0,-4.4,10.0,3.0,5.2,0.12,0.026,0.68,0.03,-3.6,5.0,8.2,0.14,0.032,0.45,0.8,10.0,0.05,1.15,3.8,0.75,4.0
8477,0.8307184145334434,0.7209518032852363,0.8516483516483516,0.8298689561680976,0.6545012165450121,0.9340162699608315,0.8492485549132948,0.32292917166866747,3640,4426,411,waveblock_00145,0.0,0.0,1.0,-4.4,10.0,3.0,5.2,0.12,0.026,0.68,0.03,-3.6,5.0,8.2,0.14,0.032,0.45,0.8,12.0,0.05,1.15,3.8,0.75,4.0
8477,0.8420431756517636,0.7314554401350856,0.8516483516483516,0.8558517849073656,0.6082725060827251,0.9340162699608315,0.8493273542600897,0.35816618911174786,3640,4426,411,waveblock_00146,0.0,0.0,1.0,-4.4,10.0,3.0,5.2,0.12,0.026,0.68,0.03,-3.6,5.0,8.2,0.14,0.032,0.45,0.8,14.0,0.05,1.15,3.8,0.75,4.0
8477,0.8213990798631592,0.7115619693109636,0.8516483516483516,0.8097605061003164,0.6788321167883211,0.9340162699608315,0.8482840236686391,0.2990353697749196,3640,4426,411,waveblock_00147,0.0,0.0,1.0,-4.4,10.0,3.0,5.2,0.12,0.026,0.68,0.03,-3.2,5.0,8.2,0.14,0.032,0.45,0.8,10.0,0.05,1.15,3.8,0.75,4.0
8477,0.8307184145334434,0.7209518032852363,0.8516483516483516,0.8298689561680976,0.6545012165450121,0.9340162699608315,0.8492485549132948,0.32292917166866747,3640,4426,411,waveblock_00148,0.0,0.0,1.0,-4.4,10.0,3.0,5.2,0.12,0.026,0.68,0.03,-3.2,5.0,8.2,0.14,0.032,0.45,0.8,12.0,0.05,1.15,3.8,0.75,4.0
8477,0.8420431756517636,0.7314554401350856,0.8516483516483516,0.8558517849073656,0.6082725060827251,0.9340162699608315,0.8493273542600897,0.35816618911174786,3640,4426,411,waveblock_00149,0.0,0.0,1.0,-4.4,10.0,3.0,5.2,0.12,0.026,0.68,0.03,-3.2,5.0,8.2,0.14,0.032,0.45,0.8,14.0,0.05,1.15,3.8,0.75,4.0
8477,0.8213990798631592,0.7115619693109636,0.8516483516483516,0.8097605061003164,0.6788321167883211,0.9340162699608315,0.8482840236686391,0.2990353697749196,3640,4426,411,waveblock_00150,0.0,0.0,1.0,-4.4,10.0,3.0,5.2,0.12,0.026,0.68,0.03,-2.8,5.0,8.2,0.14,0.032,0.45,0.8,10.0,0.05,1.15,3.8,0.75,4.0
8477,0.8307184145334434,0.7209518032852363,0.8516483516483516,0.8298689561680976,0.6545012165450121,0.9340162699608315,0.8492485549132948,0.32292917166866747,3640,4426,411,waveblock_00151,0.0,0.0,1.0,-4.4,10.0,3.0,5.2,0.12,0.026,0.68,0.03,-2.8,5.0,8.2,0.14,0.032,0.45,0.8,12.0,0.05,1.15,3.8,0.75,4.0
8477,0.8420431756517636,0.7314554401350856,0.8516483516483516,0.8558517849073656,0.6082725060827251,0.9340162699608315,0.8493273542600897,0.35816618911174786,3640,4426,411,waveblock_00152,0.0,0.0,1.0,-4.4,10.0,3.0,5.2,0.12,0.026,0.68,0.03,-2.8,5.0,8.2,0.14,0.032,0.45,0.8,14.0,0.05,1.15,3.8,0.75,4.0
8477,0.8213990798631592,0.7115619693109636,0.8516483516483516,0.8097605061003164,0.6788321167883211,0.9340162699608315,0.8482840236686391,0.2990353697749196,3640,4426,411,waveblock_00153,0.0,0.0,1.0,-4.4,12.0,3.0,5.2,0.12,0.026,0.68,0.03,-3.6,5.0,8.2,0.14,0.032,0.45,0.8,10.0,0.05,1.15,3.8,0.75,4.0
8477,0.8307184145334434,0.7209518032852363,0.8516483516483516,0.8298689561680976,0.6545012165450121,0.9340162699608315,0.8492485549132948,0.32292917166866747,3640,4426,411,waveblock_00154,0.0,0.0,1.0,-4.4,12.0,3.0,5.2,0.12,0.026,0.68,0.03,-3.6,5.0,8.2,0.14,0.032,0.45,0.8,12.0,0.05,1.15,3.8,0.75,4.0
8477,0.8420431756517636,0.7314554401350856,0.8516483516483516,0.8558517849073656,0.6082725060827251,0.9340162699608315,0.8493273542600897,0.35816618911174786,3640,4426,411,waveblock_00155,0.0,0.0,1.0,-4.4,12.0,3.0,5.2,0.12,0.026,0.68,0.03,-3.6,5.0,8.2,0.14,0.032,0.45,0.8,14.0,0.05,1.15,3.8,0.75,4.0
8477,0.8213990798631592,0.7115619693109636,0.8516483516483516,0.8097605061003164,0.6788321167883211,0.9340162699608315,0.8482840236686391,0.2990353697749196,3640,4426,411,waveblock_00156,0.0,0.0,1.0,-4.4,12.0,3.0,5.2,0.12,0.026,0.68,0.03,-3.2,5.0,8.2,0.14,0.032,0.45,0.8,10.0,0.05,1.15,3.8,0.75,4.0
8477,0.8307184145334434,0.7209518032852363,0.8516483516483516,0.8298689561680976,0.6545012165450121,0.9340162699608315,0.8492485549132948,0.32292917166866747,3640,4426,411,waveblock_00157,0.0,0.0,1.0,-4.4,12.0,3.0,5.2,0.12,0.026,0.68,0.03,-3.2,5.0,8.2,0.14,0.032,0.45,0.8,12.0,0.05,1.15,3.8,0.75,4.0
8477,0.8420431756517636,0.7314554401350856,0.8516483516483516,0.8558517849073656,0.6082725060827251,0.9340162699608315,0.8493273542600897,0.35816618911174786,3640,4426,411,waveblock_00158,0.0,0.0,1.0,-4.4,12.0,3.0,5.2,0.12,0.026,0.68,0.03,-3.2,5.0,8.2,0.14,0.032,0.45,0.8,14.0,0.05,1.15,3.8,0.75,4.0
8477,0.8213990798631592,0.7115619693109636,0.8516483516483516,0.8097605061003164,0.6788321167883211,0.9340162699608315,0.8482840236686391,0.2990353697749196,3640,4426,411,waveblock_00159,0.0,0.0,1.0,-4.4,12.0,3.0,5.2,0.12,0.026,0.68,0.03,-2.8,5.0,8.2,0.14,0.032,0.45,0.8,10.0,0.05,1.15,3.8,0.75,4.0
8477,0.8307184145334434,0.7209518032852363,0.8516483516483516,0.8298689561680976,0.6545012165450121,0.9340162699608315,0.8492485549132948,0.32292917166866747,3640,4426,411,waveblock_00160,0.0,0.0,1.0,-4.4,12.0,3.0,5.2,0.12,0.026,0.68,0.03,-2.8,5.0,8.2,0.14,0.032,0.45,0.8,12.0,0.05,1.15,3.8,0.75,4.0
8477,0.8420431756517636,0.7314554401350856,0.8516483516483516,0.8558517849073656,0.6082725060827251,0.9340162699608315,0.8493273542600897,0.35816618911174786,3640,4426,411,waveblock_00161,0.0,0.0,1.0,-4.4,12.0,3.0,5.2,0.12,0.026,0.68,0.03,-2.8,5.0,8.2,0.14,0.032,0.45,0.8,14.0,0.05,1.15,3.8,0.75,4.0
8477,0.8213990798631592,0.7115619693109636,0.8516483516483516,0.8097605061003164,0.6788321167883211,0.9340162699608315,0.8482840236686391,0.2990353697749196,3640,4426,411,waveblock_00162,0.0,0.0,1.0,-4.0,8.0,3.0,5.2,0.12,0.026,0.68,0.03,-3.6,5.0,8.2,0.14,0.032,0.45,0.8,10.0,0.05,1.15,3.8,0.75,4.0
8477,0.8307184145334434,0.7209518032852363,0.8516483516483516,0.8298689561680976,0.6545012165450121,0.9340162699608315,0.8492485549132948,0.32292917166866747,3640,4426,411,waveblock_00163,0.0,0.0,1.0,-4.0,8.0,3.0,5.2,0.12,0.026,0.68,0.03,-3.6,5.0,8.2,0.14,0.032,0.45,0.8,12.0,0.05,1.15,3.8,0.75,4.0
8477,0.8420431756517636,0.7314554401350856,0.8516483516483516,0.8558517849073656,0.6082725060827251,0.9340162699608315,0.8493273542600897,0.35816618911174786,3640,4426,411,waveblock_00164,0.0,0.0,1.0,-4.0,8.0,3.0,5.2,0.12,0.026,0.68,0.03,-3.6,5.0,8.2,0.14,0.032,0.45,0.8,14.0,0.05,1.15,3.8,0.75,4.0
8477,0.8213990798631592,0.7115619693109636,0.8516483516483516,0.8097605061003164,0.6788321167883211,0.9340162699608315,0.8482840236686391,0.2990353697749196,3640,4426,411,waveblock_00165,0.0,0.0,1.0,-4.0,8.0,3.0,5.2,0.12,0.026,0.68,0.03,-3.2,5.0,8.2,0.14,0.032,0.45,0.8,10.0,0.05,1.15,3.8,0.75,4.0
8477,0.8307184145334434,0.7209518032852363,0.8516483516483516,0.8298689561680976,0.6545012165450121,0.9340162699608315,0.8492485549132948,0.32292917166866747,3640,4426,411,waveblock_00166,0.0,0.0,1.0,-4.0,8.0,3.0,5.2,0.12,0.026,0.68,0.03,-3.2,5.0,8.2,0.14,0.032,0.45,0.8,12.0,0.05,1.15,3.8,0.75,4.0
8477,0.8420431756517636,0.7314554401350856,0.8516483516483516,0.8558517849073656,0.6082725060827251,0.9340162699608315,0.8493273542600897,0.35816618911174786,3640,4426,411,waveblock_00167,0.0,0.0,1.0,-4.0,8.0,3.0,5.2,0.12,0.026,0.68,0.03,-3.2,5.0,8.2,0.14,0.032,0.45,0.8,14.0,0.05,1.15,3.8,0.75,4.0
8477,0.8213990798631592,0.7115619693109636,0.8516483516483516,0.8097605061003164,0.6788321167883211,0.9340162699608315,0.8482840236686391,0.2990353697749196,3640,4426,411,waveblock_00168,0.0,0.0,1.0,-4.0,8.0,3.0,5.2,0.12,0.026,0.68,0.03,-2.8,5.0,8.2,0.14,0.032,0.45,0.8,10.0,0.05,1.15,3.8,0.75,4.0
8477,0.8307184145334434,0.7209518032852363,0.8516483516483516,0.8298689561680976,0.6545012165450121,0.9340162699608315,0.8492485549132948,0.32292917166866747,3640,4426,411,waveblock_00169,0.0,0.0,1.0,-4.0,8.0,3.0,5.2,0.12,0.026,0.68,0.03,-2.8,5.0,8.2,0.14,0.032,0.45,0.8,12.0,0.05,1.15,3.8,0.75,4.0
8477,0.8420431756517636,0.7314554401350856,0.8516483516483516,0.8558517849073656,0.6082725060827251,0.9340162699608315,0.8493273542600897,0.35816618911174786,3640,4426,411,waveblock_00170,0.0,0.0,1.0,-4.0,8.0,3.0,5.2,0.12,0.026,0.68,0.03,-2.8,5.0,8.2,0.14,0.032,0.45,0.8,14.0,0.05,1.15,3.8,0.75,4.0
8477,0.8213990798631592,0.7115619693109636,0.8516483516483516,0.8097605061003164,0.6788321167883211,0.9340162699608315,0.8482840236686391,0.2990353697749196,3640,4426,411,waveblock_00171,0.0,0.0,1.0,-4.0,10.0,3.0,5.2,0.12,0.026,0.68,0.03,-3.6,5.0,8.2,0.14,0.032,0.45,0.8,10.0,0.05,1.15,3.8,0.75,4.0
8477,0.8307184145334434,0.7209518032852363,0.8516483516483516,0.8298689561680976,0.6545012165450121,0.9340162699608315,0.8492485549132948,0.32292917166866747,3640,4426,411,waveblock_00172,0.0,0.0,1.0,-4.0,10.0,3.0,5.2,0.12,0.026,0.68,0.03,-3.6,5.0,8.2,0.14,0.032,0.45,0.8,12.0,0.05,1.15,3.8,0.75,4.0
8477,0.8420431756517636,0.7314554401350856,0.8516483516483516,0.8558517849073656,0.6082725060827251,0.9340162699608315,0.8493273542600897,0.35816618911174786,3640,4426,411,waveblock_00173,0.0,0.0,1.0,-4.0,10.0,3.0,5.2,0.12,0.026,0.68,0.03,-3.6,5.0,8.2,0.14,0.032,0.45,0.8,14.0,0.05,1.15,3.8,0.75,4.0
8477,0.8213990798631592,0.7115619693109636,0.8516483516483516,0.8097605061003164,0.6788321167883211,0.9340162699608315,0.8482840236686391,0.2990353697749196,3640,4426,411,waveblock_00174,0.0,0.0,1.0,-4.0,10.0,3.0,5.2,0.12,0.026,0.68,0.03,-3.2,5.0,8.2,0.14,0.032,0.45,0.8,10.0,0.05,1.15,3.8,0.75,4.0
8477,0.8307184145334434,0.7209518032852363,0.8516483516483516,0.8298689561680976,0.6545012165450121,0.9340162699608315,0.8492485549132948,0.32292917166866747,3640,4426,411,waveblock_00175,0.0,0.0,1.0,-4.0,10.0,3.0,5.2,0.12,0.026,0.68,0.03,-3.2,5.0,8.2,0.14,0.032,0.45,0.8,12.0,0.05,1.15,3.8,0.75,4.0
8477,0.8420431756517636,0.7314554401350856,0.8516483516483516,0.8558517849073656,0.6082725060827251,0.9340162699608315,0.8493273542600897,0.35816618911174786,3640,4426,411,waveblock_00176,0.0,0.0,1.0,-4.0,10.0,3.0,5.2,0.12,0.026,0.68,0.03,-3.2,5.0,8.2,0.14,0.032,0.45,0.8,14.0,0.05,1.15,3.8,0.75,4.0
8477,0.8213990798631592,0.7115619693109636,0.8516483516483516,0.8097605061003164,0.6788321167883211,0.9340162699608315,0.8482840236686391,0.2990353697749196,3640,4426,411,waveblock_00177,0.0,0.0,1.0,-4.0,10.0,3.0,5.2,0.12,0.026,0.68,0.03,-2.8,5.0,8.2,0.14,0.032,0.45,0.8,10.0,0.05,1.15,3.8,0.75,4.0
8477,0.8307184145334434,0.7209518032852363,0.8516483516483516,0.8298689561680976,0.6545012165450121,0.9340162699608315,0.8492485549132948,0.32292917166866747,3640,4426,411,waveblock_00178,0.0,0.0,1.0,-4.0,10.0,3.0,5.2,0.12,0.026,0.68,0.03,-2.8,5.0,8.2,0.14,0.032,0.45,0.8,12.0,0.05,1.15,3.8,0.75,4.0
8477,0.8420431756517636,0.7314554401350856,0.8516483516483516,0.8558517849073656,0.6082725060827251,0.9340162699608315,0.8493273542600897,0.35816618911174786,3640,4426,411,waveblock_00179,0.0,0.0,1.0,-4.0,10.0,3.0,5.2,0.12,0.026,0.68,0.03,-2.8,5.0,8.2,0.14,0.032,0.45,0.8,14.0,0.05,1.15,3.8,0.75,4.0
8477,0.8213990798631592,0.7115619693109636,0.8516483516483516,0.8097605061003164,0.6788321167883211,0.9340162699608315,0.8482840236686391,0.2990353697749196,3640,4426,411,waveblock_00180,0.0,0.0,1.0,-4.0,12.0,3.0,5.2,0.12,0.026,0.68,0.03,-3.6,5.0,8.2,0.14,0.032,0.45,0.8,10.0,0.05,1.15,3.8,0.75,4.0
8477,0.8307184145334434,0.7209518032852363,0.8516483516483516,0.8298689561680976,0.6545012165450121,0.9340162699608315,0.8492485549132948,0.32292917166866747,3640,4426,411,waveblock_00181,0.0,0.0,1.0,-4.0,12.0,3.0,5.2,0.12,0.026,0.68,0.03,-3.6,5.0,8.2,0.14,0.032,0.45,0.8,12.0,0.05,1.15,3.8,0.75,4.0
8477,0.8420431756517636,0.7314554401350856,0.8516483516483516,0.8558517849073656,0.6082725060827251,0.9340162699608315,0.8493273542600897,0.35816618911174786,3640,4426,411,waveblock_00182,0.0,0.0,1.0,-4.0,12.0,3.0,5.2,0.12,0.026,0.68,0.03,-3.6,5.0,8.2,0.14,0.032,0.45,0.8,14.0,0.05,1.15,3.8,0.75,4.0
8477,0.8213990798631592,0.7115619693109636,0.8516483516483516,0.8097605061003164,0.6788321167883211,0.9340162699608315,0.8482840236686391,0.2990353697749196,3640,4426,411,waveblock_00183,0.0,0.0,1.0,-4.0,12.0,3.0,5.2,0.12,0.026,0.68,0.03,-3.2,5.0,8.2,0.14,0.032,0.45,0.8,10.0,0.05,1.15,3.8,0.75,4.0
8477,0.8307184145334434,0.7209518032852363,0.8516483516483516,0.8298689561680976,0.6545012165450121,0.9340162699608315,0.8492485549132948,0.32292917166866747,3640,4426,411,waveblock_00184,0.0,0.0,1.0,-4.0,12.0,3.0,5.2,0.12,0.026,0.68,0.03,-3.2,5.0,8.2,0.14,0.032,0.45,0.8,12.0,0.05,1.15,3.8,0.75,4.0
8477,0.8420431756517636,0.7314554401350856,0.8516483516483516,0.8558517849073656,0.6082725060827251,0.9340162699608315,0.8493273542600897,0.35816618911174786,3640,4426,411,waveblock_00185,0.0,0.0,1.0,-4.0,12.0,3.0,5.2,0.12,0.026,0.68,0.03,-3.2,5.0,8.2,0.14,0.032,0.45,0.8,14.0,0.05,1.15,3.8,0.75,4.0
8477,0.8213990798631592,0.7115619693109636,0.8516483516483516,0.8097605061003164,0.6788321167883211,0.9340162699608315,0.8482840236686391,0.2990353697749196,3640,4426,411,waveblock_00186,0.0,0.0,1.0,-4.0,12.0,3.0,5.2,0.12,0.026,0.68,0.03,-2.8,5.0,8.2,0.14,0.032,0.45,0.8,10.0,0.05,1.15,3.8,0.75,4.0
8477,0.8307184145334434,0.7209518032852363,0.8516483516483516,0.8298689561680976,0.6545012165450121,0.9340162699608315,0.8492485549132948,0.32292917166866747,3640,4426,411,waveblock_00187,0.0,0.0,1.0,-4.0,12.0,3.0,5.2,0.12,0.026,0.68,0.03,-2.8,5.0,8.2,0.14,0.032,0.45,0.8,12.0,0.05,1.15,3.8,0.75,4.0
8477,0.8420431756517636,0.7314554401350856,0.8516483516483516,0.8558517849073656,0.6082725060827251,0.9340162699608315,0.8493273542600897,0.35816618911174786,3640,4426,411,waveblock_00188,0.0,0.0,1.0,-4.0,12.0,3.0,5.2,0.12,0.026,0.68,0.03,-2.8,5.0,8.2,0.14,0.032,0.45,0.8,14.0,0.05,1.15,3.8,0.75,4.0
8477,0.8213990798631592,0.7115619693109636,0.8516483516483516,0.8097605061003164,0.6788321167883211,0.9340162699608315,0.8482840236686391,0.2990353697749196,3640,4426,411,waveblock_00189,0.0,0.0,1.0,-3.6,8.0,3.0,5.2,0.12,0.026,0.68,0.03,-3.6,5.0,8.2,0.14,0.032,0.45,0.8,10.0,0.05,1.15,3.8,0.75,4.0
8477,0.8307184145334434,0.7209518032852363,0.8516483516483516,0.8298689561680976,0.6545012165450121,0.9340162699608315,0.8492485549132948,0.32292917166866747,3640,4426,411,waveblock_00190,0.0,0.0,1.0,-3.6,8.0,3.0,5.2,0.12,0.026,0.68,0.03,-3.6,5.0,8.2,0.14,0.032,0.45,0.8,12.0,0.05,1.15,3.8,0.75,4.0
8477,0.8420431756517636,0.7314554401350856,0.8516483516483516,0.8558517849073656,0.6082725060827251,0.9340162699608315,0.8493273542600897,0.35816618911174786,3640,4426,411,waveblock_00191,0.0,0.0,1.0,-3.6,8.0,3.0,5.2,0.12,0.026,0.68,0.03,-3.6,5.0,8.2,0.14,0.032,0.45,0.8,14.0,0.05,1.15,3.8,0.75,4.0
8477,0.8213990798631592,0.7115619693109636,0.8516483516483516,0.8097605061003164,0.6788321167883211,0.9340162699608315,0.8482840236686391,0.2990353697749196,3640,4426,411,waveblock_00192,0.0,0.0,1.0,-3.6,8.0,3.0,5.2,0.12,0.026,0.68,0.03,-3.2,5.0,8.2,0.14,0.032,0.45,0.8,10.0,0.05,1.15,3.8,0.75,4.0
8477,0.8307184145334434,0.7209518032852363,0.8516483516483516,0.8298689561680976,0.6545012165450121,0.9340162699608315,0.8492485549132948,0.32292917166866747,3640,4426,411,waveblock_00193,0.0,0.0,1.0,-3.6,8.0,3.0,5.2,0.12,0.026,0.68,0.03,-3.2,5.0,8.2,0.14,0.032,0.45,0.8,12.0,0.05,1.15,3.8,0.75,4.0
8477,0.8420431756517636,0.7314554401350856,0.8516483516483516,0.8558517849073656,0.6082725060827251,0.9340162699608315,0.8493273542600897,0.35816618911174786,3640,4426,411,waveblock_00194,0.0,0.0,1.0,-3.6,8.0,3.0,5.2,0.12,0.026,0.68,0.03,-3.2,5.0,8.2,0.14,0.032,0.45,0.8,14.0,0.05,1.15,3.8,0.75,4.0
8477,0.8213990798631592,0.7115619693109636,0.8516483516483516,0.8097605061003164,0.6788321167883211,0.9340162699608315,0.8482840236686391,0.2990353697749196,3640,4426,411,waveblock_00195,0.0,0.0,1.0,-3.6,8.0,3.0,5.2,0.12,0.026,0.68,0.03,-2.8,5.0,8.2,0.14,0.032,0.45,0.8,10.0,0.05,1.15,3.8,0.75,4.0
8477,0.8307184145334434,0.7209518032852363,0.8516483516483516,0.8298689561680976,0.6545012165450121,0.9340162699608315,0.8492485549132948,0.32292917166866747,3640,4426,411,waveblock_00196,0.0,0.0,1.0,-3.6,8.0,3.0,5.2,0.12,0.026,0.68,0.03,-2.8,5.0,8.2,0.14,0.032,0.45,0.8,12.0,0.05,1.15,3.8,0.75,4.0
8477,0.8420431756517636,0.7314554401350856,0.8516483516483516,0.8558517849073656,0.6082725060827251,0.9340162699608315,0.8493273542600897,0.35816618911174786,3640,4426,411,waveblock_00197,0.0,0.0,1.0,-3.6,8.0,3.0,5.2,0.12,0.026,0.68,0.03,-2.8,5.0,8.2,0.14,0.032,0.45,0.8,14.0,0.05,1.15,3.8,0.75,4.0
8477,0.8213990798631592,0.7115619693109636,0.8516483516483516,0.8097605061003164,0.6788321167883211,0.9340162699608315,0.8482840236686391,0.2990353697749196,3640,4426,411,waveblock_00198,0.0,0.0,1.0,-3.6,10.0,3.0,5.2,0.12,0.026,0.68,0.03,-3.6,5.0,8.2,0.14,0.032,0.45,0.8,10.0,0.05,1.15,3.8,0.75,4.0
8477,0.8307184145334434,0.7209518032852363,0.8516483516483516,0.8298689561680976,0.6545012165450121,0.9340162699608315,0.8492485549132948,0.32292917166866747,3640,4426,411,waveblock_00199,0.0,0.0,1.0,-3.6,10.0,3.0,5.2,0.12,0.026,0.68,0.03,-3.6,5.0,8.2,0.14,0.032,0.45,0.8,12.0,0.05,1.15,3.8,0.75,4.0
8477,0.8420431756517636,0.7314554401350856,0.8516483516483516,0.8558517849073656,0.6082725060827251,0.9340162699608315,0.8493273542600897,0.35816618911174786,3640,4426,411,waveblock_00200,0.0,0.0,1.0,-3.6,10.0,3.0,5.2,0.12,0.026,0.68,0.03,-3.6,5.0,8.2,0.14,0.032,0.45,0.8,14.0,0.05,1.15,3.8,0.75,4.0
8477,0.8213990798631592,0.7115619693109636,0.8516483516483516,0.8097605061003164,0.6788321167883211,0.9340162699608315,0.8482840236686391,0.2990353697749196,3640,4426,411,waveblock_00201,0.0,0.0,1.0,-3.6,10.0,3.0,5.2,0.12,0.026,0.68,0.03,-3.2,5.0,8.2,0.14,0.032,0.45,0.8,10.0,0.05,1.15,3.8,0.75,4.0
8477,0.8307184145334434,0.7209518032852363,0.8516483516483516,0.8298689561680976,0.6545012165450121,0.9340162699608315,0.8492485549132948,0.32292917166866747,3640,4426,411,waveblock_00202,0.0,0.0,1.0,-3.6,10.0,3.0,5.2,0.12,0.026,0.68,0.03,-3.2,5.0,8.2,0.14,0.032,0.45,0.8,12.0,0.05,1.15,3.8,0.75,4.0
8477,0.8420431756517636,0.7314554401350856,0.8516483516483516,0.8558517849073656,0.6082725060827251,0.9340162699608315,0.8493273542600897,0.35816618911174786,3640,4426,411,waveblock_00203,0.0,0.0,1.0,-3.6,10.0,3.0,5.2,0.12,0.026,0.68,0.03,-3.2,5.0,8.2,0.14,0.032,0.45,0.8,14.0,0.05,1.15,3.8,0.75,4.0
8477,0.8213990798631592,0.7115619693109636,0.8516483516483516,0.8097605061003164,0.6788321167883211,0.9340162699608315,0.8482840236686391,0.2990353697749196,3640,4426,411,waveblock_00204,0.0,0.0,1.0,-3.6,10.0,3.0,5.2,0.12,0.026,0.68,0.03,-2.8,5.0,8.2,0.14,0.032,0.45,0.8,10.0,0.05,1.15,3.8,0.75,4.0
8477,0.8307184145334434,0.7209518032852363,0.8516483516483516,0.8298689561680976,0.6545012165450121,0.9340162699608315,0.8492485549132948,0.32292917166866747,3640,4426,411,waveblock_00205,0.0,0.0,1.0,-3.6,10.0,3.0,5.2,0.12,0.026,0.68,0.03,-2.8,5.0,8.2,0.14,0.032,0.45,0.8,12.0,0.05,1.15,3.8,0.75,4.0
8477,0.8420431756517636,0.7314554401350856,0.8516483516483516,0.8558517849073656,0.6082725060827251,0.9340162699608315,0.8493273542600897,0.35816618911174786,3640,4426,411,waveblock_00206,0.0,0.0,1.0,-3.6,10.0,3.0,5.2,0.12,0.026,0.68,0.03,-2.8,5.0,8.2,0.14,0.032,0.45,0.8,14.0,0.05,1.15,3.8,0.75,4.0
8477,0.8213990798631592,0.7115619693109636,0.8516483516483516,0.8097605061003164,0.6788321167883211,0.9340162699608315,0.8482840236686391,0.2990353697749196,3640,4426,411,waveblock_00207,0.0,0.0,1.0,-3.6,12.0,3.0,5.2,0.12,0.026,0.68,0.03,-3.6,5.0,8.2,0.14,0.032,0.45,0.8,10.0,0.05,1.15,3.8,0.75,4.0
8477,0.8307184145334434,0.7209518032852363,0.8516483516483516,0.8298689561680976,0.6545012165450121,0.9340162699608315,0.8492485549132948,0.32292917166866747,3640,4426,411,waveblock_00208,0.0,0.0,1.0,-3.6,12.0,3.0,5.2,0.12,0.026,0.68,0.03,-3.6,5.0,8.2,0.14,0.032,0.45,0.8,12.0,0.05,1.15,3.8,0.75,4.0
8477,0.8420431756517636,0.7314554401350856,0.8516483516483516,0.8558517849073656,0.6082725060827251,0.9340162699608315,0.8493273542600897,0.35816618911174786,3640,4426,411,waveblock_00209,0.0,0.0,1.0,-3.6,12.0,3.0,5.2,0.12,0.026,0.68,0.03,-3.6,5.0,8.2,0.14,0.032,0.45,0.8,14.0,0.05,1.15,3.8,0.75,4.0
8477,0.8213990798631592,0.7115619693109636,0.8516483516483516,0.8097605061003164,0.6788321167883211,0.9340162699608315,0.8482840236686391,0.2990353697749196,3640,4426,411,waveblock_00210,0.0,0.0,1.0,-3.6,12.0,3.0,5.2,0.12,0.026,0.68,0.03,-3.2,5.0,8.2,0.14,0.032,0.45,0.8,10.0,0.05,1.15,3.8,0.75,4.0
8477,0.8307184145334434,0.7209518032852363,0.8516483516483516,0.8298689561680976,0.6545012165450121,0.9340162699608315,0.8492485549132948,0.32292917166866747,3640,4426,411,waveblock_00211,0.0,0.0,1.0,-3.6,12.0,3.0,5.2,0.12,0.026,0.68,0.03,-3.2,5.0,8.2,0.14,0.032,0.45,0.8,12.0,0.05,1.15,3.8,0.75,4.0
8477,0.8420431756517636,0.7314554401350856,0.8516483516483516,0.8558517849073656,0.6082725060827251,0.9340162699608315,0.8493273542600897,0.35816618911174786,3640,4426,411,waveblock_00212,0.0,0.0,1.0,-3.6,12.0,3.0,5.2,0.12,0.026,0.68,0.03,-3.2,5.0,8.2,0.14,0.032,0.45,0.8,14.0,0.05,1.15,3.8,0.75,4.0
8477,0.8213990798631592,0.7115619693109636,0.8516483516483516,0.8097605061003164,0.6788321167883211,0.9340162699608315,0.8482840236686391,0.2990353697749196,3640,4426,411,waveblock_00213,0.0,0.0,1.0,-3.6,12.0,3.0,5.2,0.12,0.026,0.68,0.03,-2.8,5.0,8.2,0.14,0.032,0.45,0.8,10.0,0.05,1.15,3.8,0.75,4.0
8477,0.8307184145334434,0.7209518032852363,0.8516483516483516,0.8298689561680976,0.6545012165450121,0.9340162699608315,0.8492485549132948,0.32292917166866747,3640,4426,411,waveblock_00214,0.0,0.0,1.0,-3.6,12.0,3.0,5.2,0.12,0.026,0.68,0.03,-2.8,5.0,8.2,0.14,0.032,0.45,0.8,12.0,0.05,1.15,3.8,0.75,4.0
8477,0.8420431756517636,0.7314554401350856,0.8516483516483516,0.8558517849073656,0.6082725060827251,0.9340162699608315,0.8493273542600897,0.35816618911174786,3640,4426,411,waveblock_00215,0.0,0.0,1.0,-3.6,12.0,3.0,5.2,0.12,0.026,0.68,0.03,-2.8,5.0,8.2,0.14,0.032,0.45,0.8,14.0,0.05,1.15,3.8,0.75,4.0
8477,0.8782588179780583,0.788407611037655,0.8340659340659341,0.9518752824220515,0.4768856447688564,0.9440298507462687,0.8420947431541075,0.7596899224806202,3640,4426,411,waveblock_00216,0.0,1.0,0.0,-4.8,8.0,3.0,5.2,0.12,0.026,0.68,0.03,-3.6,5.0,8.2,0.14,0.032,0.45,0.8,10.0,0.05,1.15,3.8,0.75,4.0
8477,0.8782588179780583,0.788407611037655,0.8340659340659341,0.9518752824220515,0.4768856447688564,0.9440298507462687,0.8420947431541075,0.7596899224806202,3640,4426,411,waveblock_00217,0.0,1.0,0.0,-4.8,8.0,3.0,5.2,0.12,0.026,0.68,0.03,-3.6,5.0,8.2,0.14,0.032,0.45,0.8,12.0,0.05,1.15,3.8,0.75,4.0
8477,0.8782588179780583,0.788407611037655,0.8340659340659341,0.9518752824220515,0.4768856447688564,0.9440298507462687,0.8420947431541075,0.7596899224806202,3640,4426,411,waveblock_00218,0.0,1.0,0.0,-4.8,8.0,3.0,5.2,0.12,0.026,0.68,0.03,-3.6,5.0,8.2,0.14,0.032,0.45,0.8,14.0,0.05,1.15,3.8,0.75,4.0
8477,0.8803822106877434,0.789966858082699,0.8403846153846154,0.9507455942159964,0.4768856447688564,0.9429716399506781,0.8458291457286432,0.7596899224806202,3640,4426,411,waveblock_00219,0.0,1.0,0.0,-4.8,8.0,3.0,5.2,0.12,0.026,0.68,0.03,-3.2,5.0,8.2,0.14,0.032,0.45,0.8,10.0,0.05,1.15,3.8,0.75,4.0
8477,0.8803822106877434,0.789966858082699,0.8403846153846154,0.9507455942159964,0.4768856447688564,0.9429716399506781,0.8458291457286432,0.7596899224806202,3640,4426,411,waveblock_00220,0.0,1.0,0.0,-4.8,8.0,3.0,5.2,0.12,0.026,0.68,0.03,-3.2,5.0,8.2,0.14,0.032,0.45,0.8,12.0,0.05,1.15,3.8,0.75,4.0
8477,0.8803822106877434,0.789966858082699,0.8403846153846154,0.9507455942159964,0.4768856447688564,0.9429716399506781,0.8458291457286432,0.7596899224806202,3640,4426,411,waveblock_00221,0.0,1.0,0.0,-4.8,8.0,3.0,5.2,0.12,0.026,0.68,0.03,-3.2,5.0,8.2,0.14,0.032,0.45,0.8,14.0,0.05,1.15,3.8,0.75,4.0
8477,0.8812079745192875,0.790613466251196,0.8464285714285714,0.947356529597831,0.4768856447688564,0.9390429747028345,0.8491292021061159,0.7596899224806202,3640,4426,411,waveblock_00222,0.0,1.0,0.0,-4.8,8.0,3.0,5.2,0.12,0.026,0.68,0.03,-2.8,5.0,8.2,0.14,0.032,0.45,0.8,10.0,0.05,1.15,3.8,0.75,4.0
8477,0.8812079745192875,0.790613466251196,0.8464285714285714,0.947356529597831,0.4768856447688564,0.9390429747028345,0.8491292021061159,0.7596899224806202,3640,4426,411,waveblock_00223,0.0,1.0,0.0,-4.8,8.0,3.0,5.2,0.12,0.026,0.68,0.03,-2.8,5.0,8.2,0.14,0.032,0.45,0.8,12.0,0.05,1.15,3.8,0.75,4.0
8477,0.8812079745192875,0.790613466251196,0.8464285714285714,0.947356529597831,0.4768856447688564,0.9390429747028345,0.8491292021061159,0.7596899224806202,3640,4426,411,waveblock_00224,0.0,1.0,0.0,-4.8,8.0,3.0,5.2,0.12,0.026,0.68,0.03,-2.8,5.0,8.2,0.14,0.032,0.45,0.8,14.0,0.05,1.15,3.8,0.75,4.0
8477,0.8782588179780583,0.788407611037655,0.8340659340659341,0.9518752824220515,0.4768856447688564,0.9440298507462687,0.8420947431541075,0.7596899224806202,3640,4426,411,waveblock_00225,0.0,1.0,0.0,-4.8,10.0,3.0,5.2,0.12,0.026,0.68,0.03,-3.6,5.0,8.2,0.14,0.032,0.45,0.8,10.0,0.05,1.15,3.8,0.75,4.0
8477,0.8782588179780583,0.788407611037655,0.8340659340659341,0.9518752824220515,0.4768856447688564,0.9440298507462687,0.8420947431541075,0.7596899224806202,3640,4426,411,waveblock_00226,0.0,1.0,0.0,-4.8,10.0,3.0,5.2,0.12,0.026,0.68,0.03,-3.6,5.0,8.2,0.14,0.032,0.45,0.8,12.0,0.05,1.15,3.8,0.75,4.0
8477,0.8782588179780583,0.788407611037655,0.8340659340659341,0.9518752824220515,0.4768856447688564,0.9440298507462687,0.8420947431541075,0.7596899224806202,3640,4426,411,waveblock_00227,0.0,1.0,0.0,-4.8,10.0,3.0,5.2,0.12,0.026,0.68,0.03,-3.6,5.0,8.2,0.14,0.032,0.45,0.8,14.0,0.05,1.15,3.8,0.75,4.0
8477,0.8803822106877434,0.789966858082699,0.8403846153846154,0.9507455942159964,0.4768856447688564,0.9429716399506781,0.8458291457286432,0.7596899224806202,3640,4426,411,waveblock_00228,0.0,1.0,0.0,-4.8,10.0,3.0,5.2,0.12,0.026,0.68,0.03,-3.2,5.0,8.2,0.14,0.032,0.45,0.8,10.0,0.05,1.15,3.8,0.75,4.0
8477,0.8803822106877434,0.789966858082699,0.8403846153846154,0.9507455942159964,0.4768856447688564,0.9429716399506781,0.8458291457286432,0.7596899224806202,3640,4426,411,waveblock_00229,0.0,1.0,0.0,-4.8,10.0,3.0,5.2,0.12,0.026,0.68,0.03,-3.2,5.0,8.2,0.14,0.032,0.45,0.8,12.0,0.05,1.15,3.8,0.75,4.0
8477,0.8803822106877434,0.789966858082699,0.8403846153846154,0.9507455942159964,0.4768856447688564,0.9429716399506781,0.8458291457286432,0.7596899224806202,3640,4426,411,waveblock_00230,0.0,1.0,0.0,-4.8,10.0,3.0,5.2,0.12,0.026,0.68,0.03,-3.2,5.0,8.2,0.14,0.032,0.45,0.8,14.0,0.05,1.15,3.8,0.75,4.0
8477,0.8812079745192875,0.790613466251196,0.8464285714285714,0.947356529597831,0.4768856447688564,0.9390429747028345,0.8491292021061159,0.7596899224806202,3640,4426,411,waveblock_00231,0.0,1.0,0.0,-4.8,10.0,3.0,5.2,0.12,0.026,0.68,0.03,-2.8,5.0,8.2,0.14,0.032,0.45,0.8,10.0,0.05,1.15,3.8,0.75,4.0
8477,0.8812079745192875,0.790613466251196,0.8464285714285714,0.947356529597831,0.4768856447688564,0.9390429747028345,0.8491292021061159,0.7596899224806202,3640,4426,411,waveblock_00232,0.0,1.0,0.0,-4.8,10.0,3.0,5.2,0.12,0.026,0.68,0.03,-2.8,5.0,8.2,0.14,0.032,0.45,0.8,12.0,0.05,1.15,3.8,0.75,4.0
8477,0.8812079745192875,0.790613466251196,0.8464285714285714,0.947356529597831,0.4768856447688564,0.9390429747028345,0.8491292021061159,0.7596899224806202,3640,4426,411,waveblock_00233,0.0,1.0,0.0,-4.8,10.0,3.0,5.2,0.12,0.026,0.68,0.03,-2.8,5.0,8.2,0.14,0.032,0.45,0.8,14.0,0.05,1.15,3.8,0.75,4.0
8477,0.8782588179780583,0.788407611037655,0.8340659340659341,0.9518752824220515,0.4768856447688564,0.9440298507462687,0.8420947431541075,0.7596899224806202,3640,4426,411,waveblock_00234,0.0,1.0,0.0,-4.8,12.0,3.0,5.2,0.12,0.026,0.68,0.03,-3.6,5.0,8.2,0.14,0.032,0.45,0.8,10.0,0.05,1.15,3.8,0.75,4.0
8477,0.8782588179780583,0.788407611037655,0.8340659340659341,0.9518752824220515,0.4768856447688564,0.9440298507462687,0.8420947431541075,0.7596899224806202,3640,4426,411,waveblock_00235,0.0,1.0,0.0,-4.8,12.0,3.0,5.2,0.12,0.026,0.68,0.03,-3.6,5.0,8.2,0.14,0.032,0.45,0.8,12.0,0.05,1.15,3.8,0.75,4.0
8477,0.8782588179780583,0.788407611037655,0.8340659340659341,0.9518752824220515,0.4768856447688564,0.9440298507462687,0.8420947431541075,0.7596899224806202,3640,4426,411,waveblock_00236,0.0,1.0,0.0,-4.8,12.0,3.0,5.2,0.12,0.026,0.68,0.03,-3.6,5.0,8.2,0.14,0.032,0.45,0.8,14.0,0.05,1.15,3.8,0.75,4.0
8477,0.8803822106877434,0.789966858082699,0.8403846153846154,0.9507455942159964,0.4768856447688564,0.9429716399506781,0.8458291457286432,0.7596899224806202,3640,4426,411,waveblock_00237,0.0,1.0,0.0,-4.8,12.0,3.0,5.2,0.12,0.026,0.68,0.03,-3.2,5.0,8.2,0.14,0.032,0.45,0.8,10.0,0.05,1.15,3.8,0.75,4.0
8477,0.8803822106877434,0.789966858082699,0.8403846153846154,0.9507455942159964,0.4768856447688564,0.9429716399506781,0.8458291457286432,0.7596899224806202,3640,4426,411,waveblock_00238,0.0,1.0,0.0,-4.8,12.0,3.0,5.2,0.12,0.026,0.68,0.03,-3.2,5.0,8.2,0.14,0.032,0.45,0.8,12.0,0.05,1.15,3.8,0.75,4.0
8477,0.8803822106877434,0.789966858082699,0.8403846153846154,0.9507455942159964,0.4768856447688564,0.9429716399506781,0.8458291457286432,0.7596899224806202,3640,4426,411,waveblock_00239,0.0,1.0,0.0,-4.8,12.0,3.0,5.2,0.12,0.026,0.68,0.03,-3.2,5.0,8.2,0.14,0.032,0.45,0.8,14.0,0.05,1.15,3.8,0.75,4.0
8477,0.8812079745192875,0.790613466251196,0.8464285714285714,0.947356529597831,0.4768856447688564,0.9390429747028345,0.8491292021061159,0.7596899224806202,3640,4426,411,waveblock_00240,0.0,1.0,0.0,-4.8,12.0,3.0,5.2,0.12,0.026,0.68,0.03,-2.8,5.0,8.2,0.14,0.032,0.45,0.8,10.0,0.05,1.15,3.8,0.75,4.0
8477,0.8812079745192875,0.790613466251196,0.8464285714285714,0.947356529597831,0.4768856447688564,0.9390429747028345,0.8491292021061159,0.7596899224806202,3640,4426,411,waveblock_00241,0.0,1.0,0.0,-4.8,12.0,3.0,5.2,0.12,0.026,0.68,0.03,-2.8,5.0,8.2,0.14,0.032,0.45,0.8,12.0,0.05,1.15,3.8,0.75,4.0
8477,0.8812079745192875,0.790613466251196,0.8464285714285714,0.947356529597831,0.4768856447688564,0.9390429747028345,0.8491292021061159,0.7596899224806202,3640,4426,411,waveblock_00242,0.0,1.0,0.0,-4.8,12.0,3.0,5.2,0.12,0.026,0.68,0.03,-2.8,5.0,8.2,0.14,0.032,0.45,0.8,14.0,0.05,1.15,3.8,0.75,4.0
8477,0.8782588179780583,0.788407611037655,0.8340659340659341,0.9518752824220515,0.4768856447688564,0.9440298507462687,0.8420947431541075,0.7596899224806202,3640,4426,411,waveblock_00243,0.0,1.0,0.0,-4.4,8.0,3.0,5.2,0.12,0.026,0.68,0.03,-3.6,5.0,8.2,0.14,0.032,0.45,0.8,10.0,0.05,1.15,3.8,0.75,4.0
8477,0.8782588179780583,0.788407611037655,0.8340659340659341,0.9518752824220515,0.4768856447688564,0.9440298507462687,0.8420947431541075,0.7596899224806202,3640,4426,411,waveblock_00244,0.0,1.0,0.0,-4.4,8.0,3.0,5.2,0.12,0.026,0.68,0.03,-3.6,5.0,8.2,0.14,0.032,0.45,0.8,12.0,0.05,1.15,3.8,0.75,4.0
8477,0.8782588179780583,0.788407611037655,0.8340659340659341,0.9518752824220515,0.4768856447688564,0.9440298507462687,0.8420947431541075,0.7596899224806202,3640,4426,411,waveblock_00245,0.0,1.0,0.0,-4.4,8.0,3.0,5.2,0.12,0.026,0.68,0.03,-3.6,5.0,8.2,0.14,0.032,0.45,0.8,14.0,0.05,1.15,3.8,0.75,4.0
8477,0.8803822106877434,0.789966858082699,0.8403846153846154,0.9507455942159964,0.4768856447688564,0.9429716399506781,0.8458291457286432,0.7596899224806202,3640,4426,411,waveblock_00246,0.0,1.0,0.0,-4.4,8.0,3.0,5.2,0.12,0.026,0.68,0.03,-3.2,5.0,8.2,0.14,0.032,0.45,0.8,10.0,0.05,1.15,3.8,0.75,4.0
8477,0.8803822106877434,0.789966858082699,0.8403846153846154,0.9507455942159964,0.4768856447688564,0.9429716399506781,0.8458291457286432,0.7596899224806202,3640,4426,411,waveblock_00247,0.0,1.0,0.0,-4.4,8.0,3.0,5.2,0.12,0.026,0.68,0.03,-3.2,5.0,8.2,0.14,0.032,0.45,0.8,12.0,0.05,1.15,3.8,0.75,4.0
8477,0.8803822106877434,0.789966858082699,0.8403846153846154,0.9507455942159964,0.4768856447688564,0.9429716399506781,0.8458291457286432,0.7596899224806202,3640,4426,411,waveblock_00248,0.0,1.0,0.0,-4.4,8.0,3.0,5.2,0.12,0.026,0.68,0.03,-3.2,5.0,8.2,0.14,0.032,0.45,0.8,14.0,0.05,1.15,3.8,0.75,4.0
8477,0.8812079745192875,0.790613466251196,0.8464285714285714,0.947356529597831,0.4768856447688564,0.9390429747028345,0.8491292021061159,0.7596899224806202,3640,4426,411,waveblock_00249,0.0,1.0,0.0,-4.4,8.0,3.0,5.2,0.12,0.026,0.68,0.03,-2.8,5.0,8.2,0.14,0.032,0.45,0.8,10.0,0.05,1.15,3.8,0.75,4.0
8477,0.8812079745192875,0.790613466251196,0.8464285714285714,0.947356529597831,0.4768856447688564,0.9390429747028345,0.8491292021061159,0.7596899224806202,3640,4426,411,waveblock_00250,0.0,1.0,0.0,-4.4,8.0,3.0,5.2,0.12,0.026,0.68,0.03,-2.8,5.0,8.2,0.14,0.032,0.45,0.8,12.0,0.05,1.15,3.8,0.75,4.0
8477,0.8812079745192875,0.790613466251196,0.8464285714285714,0.947356529597831,0.4768856447688564,0.9390429747028345,0.8491292021061159,0.7596899224806202,3640,4426,411,waveblock_00251,0.0,1.0,0.0,-4.4,8.0,3.0,5.2,0.12,0.026,0.68,0.03,-2.8,5.0,8.2,0.14,0.032,0.45,0.8,14.0,0.05,1.15,3.8,0.75,4.0
8477,0.8782588179780583,0.788407611037655,0.8340659340659341,0.9518752824220515,0.4768856447688564,0.9440298507462687,0.8420947431541075,0.7596899224806202,3640,4426,411,waveblock_00252,0.0,1.0,0.0,-4.4,10.0,3.0,5.2,0.12,0.026,0.68,0.03,-3.6,5.0,8.2,0.14,0.032,0.45,0.8,10.0,0.05,1.15,3.8,0.75,4.0
8477,0.8782588179780583,0.788407611037655,0.8340659340659341,0.9518752824220515,0.4768856447688564,0.9440298507462687,0.8420947431541075,0.7596899224806202,3640,4426,411,waveblock_00253,0.0,1.0,0.0,-4.4,10.0,3.0,5.2,0.12,0.026,0.68,0.03,-3.6,5.0,8.2,0.14,0.032,0.45,0.8,12.0,0.05,1.15,3.8,0.75,4.0
8477,0.8782588179780583,0.788407611037655,0.8340659340659341,0.9518752824220515,0.4768856447688564,0.9440298507462687,0.8420947431541075,0.7596899224806202,3640,4426,411,waveblock_00254,0.0,1.0,0.0,-4.4,10.0,3.0,5.2,0.12,0.026,0.68,0.03,-3.6,5.0,8.2,0.14,0.032,0.45,0.8,14.0,0.05,1.15,3.8,0.75,4.0
8477,0.8803822106877434,0.789966858082699,0.8403846153846154,0.9507455942159964,0.4768856447688564,0.9429716399506781,0.8458291457286432,0.7596899224806202,3640,4426,411,waveblock_00255,0.0,1.0,0.0,-4.4,10.0,3.0,5.2,0.12,0.026,0.68,0.03,-3.2,5.0,8.2,0.14,0.032,0.45,0.8,10.0,0.05,1.15,3.8,0.75,4.0
8477,0.8803822106877434,0.789966858082699,0.8403846153846154,0.9507455942159964,0.4768856447688564,0.9429716399506781,0.8458291457286432,0.7596899224806202,3640,4426,411,waveblock_00256,0.0,1.0,0.0,-4.4,10.0,3.0,5.2,0.12,0.026,0.68,0.03,-3.2,5.0,8.2,0.14,0.032,0.45,0.8,12.0,0.05,1.15,3.8,0.75,4.0
8477,0.8803822106877434,0.789966858082699,0.8403846153846154,0.9507455942159964,0.4768856447688564,0.9429716399506781,0.8458291457286432,0.7596899224806202,3640,4426,411,waveblock_00257,0.0,1.0,0.0,-4.4,10.0,3.0,5.2,0.12,0.026,0.68,0.03,-3.2,5.0,8.2,0.14,0.032,0.45,0.8,14.0,0.05,1.15,3.8,0.75,4.0
8477,0.8812079745192875,0.790613466251196,0.8464285714285714,0.947356529597831,0.4768856447688564,0.9390429747028345,0.8491292021061159,0.7596899224806202,3640,4426,411,waveblock_00258,0.0,1.0,0.0,-4.4,10.0,3.0,5.2,0.12,0.026,0.68,0.03,-2.8,5.0,8.2,0.14,0.032,0.45,0.8,10.0,0.05,1.15,3.8,0.75,4.0
8477,0.8812079745192875,0.790613466251196,0.8464285714285714,0.947356529597831,0.4768856447688564,0.9390429747028345,0.8491292021061159,0.7596899224806202,3640,4426,411,waveblock_00259,0.0,1.0,0.0,-4.4,10.0,3.0,5.2,0.12,0.026,0.68,0.03,-2.8,5.0,8.2,0.14,0.032,0.45,0.8,12.0,0.05,1.15,3.8,0.75,4.0
8477,0.8812079745192875,0.790613466251196,0.8464285714285714,0.947356529597831,0.4768856447688564,0.9390429747028345,0.8491292021061159,0.7596899224806202,3640,4426,411,waveblock_00260,0.0,1.0,0.0,-4.4,10.0,3.0,5.2,0.12,0.026,0.68,0.03,-2.8,5.0,8.2,0.14,0.032,0.45,0.8,14.0,0.05,1.15,3.8,0.75,4.0
8477,0.8782588179780583,0.788407611037655,0.8340659340659341,0.9518752824220515,0.4768856447688564,0.9440298507462687,0.8420947431541075,0.7596899224806202,3640,4426,411,waveblock_00261,0.0,1.0,0.0,-4.4,12.0,3.0,5.2,0.12,0.026,0.68,0.03,-3.6,5.0,8.2,0.14,0.032,0.45,0.8,10.0,0.05,1.15,3.8,0.75,4.0
8477,0.8782588179780583,0.788407611037655,0.8340659340659341,0.9518752824220515,0.4768856447688564,0.9440298507462687,0.8420947431541075,0.7596899224806202,3640,4426,411,waveblock_00262,0.0,1.0,0.0,-4.4,12.0,3.0,5.2,0.12,0.026,0.68,0.03,-3.6,5.0,8.2,0.14,0.032,0.45,0.8,12.0,0.05,1.15,3.8,0.75,4.0
8477,0.8782588179780583,0.788407611037655,0.8340659340659341,0.9518752824220515,0.4768856447688564,0.9440298507462687,0.8420947431541075,0.7596899224806202,3640,4426,411,waveblock_00263,0.0,1.0,0.0,-4.4,12.0,3.0,5.2,0.12,0.026,0.68,0.03,-3.6,5.0,8.2,0.14,0.032,0.45,0.8,14.0,0.05,1.15,3.8,0.75,4.0
8477,0.8803822106877434,0.789966858082699,0.8403846153846154,0.9507455942159964,0.4768856447688564,0.9429716399506781,0.8458291457286432,0.7596899224806202,3640,4426,411,waveblock_00264,0.0,1.0,0.0,-4.4,12.0,3.0,5.2,0.12,0.026,0.68,0.03,-3.2,5.0,8.2,0.14,0.032,0.45,0.8,10.0,0.05,1.15,3.8,0.75,4.0
8477,0.8803822106877434,0.789966858082699,0.8403846153846154,0.9507455942159964,0.4768856447688564,0.9429716399506781,0.8458291457286432,0.7596899224806202,3640,4426,411,waveblock_00265,0.0,1.0,0.0,-4.4,12.0,3.0,5.2,0.12,0.026,0.68,0.03,-3.2,5.0,8.2,0.14,0.032,0.45,0.8,12.0,0.05,1.15,3.8,0.75,4.0
8477,0.8803822106877434,0.789966858082699,0.8403846153846154,0.9507455942159964,0.4768856447688564,0.9429716399506781,0.8458291457286432,0.7596899224806202,3640,4426,411,waveblock_00266,0.0,1.0,0.0,-4.4,12.0,3.0,5.2,0.12,0.026,0.68,0.03,-3.2,5.0,8.2,0.14,0.032,0.45,0.8,14.0,0.05,1.15,3.8,0.75,4.0
8477,0.8812079745192875,0.790613466251196,0.8464285714285714,0.947356529597831,0.4768856447688564,0.9390429747028345,0.8491292021061159,0.7596899224806202,3640,4426,411,waveblock_00267,0.0,1.0,0.0,-4.4,12.0,3.0,5.2,0.12,0.026,0.68,0.03,-2.8,5.0,8.2,0.14,0.032,0.45,0.8,10.0,0.05,1.15,3.8,0.75,4.0
8477,0.8812079745192875,0.790613466251196,0.8464285714285714,0.947356529597831,0.4768856447688564,0.9390429747028345,0.8491292021061159,0.7596899224806202,3640,4426,411,waveblock_00268,0.0,1.0,0.0,-4.4,12.0,3.0,5.2,0.12,0.026,0.68,0.03,-2.8,5.0,8.2,0.14,0.032,0.45,0.8,12.0,0.05,1.15,3.8,0.75,4.0
8477,0.8812079745192875,0.790613466251196,0.8464285714285714,0.947356529597831,0.4768856447688564,0.9390429747028345,0.8491292021061159,0.7596899224806202,3640,4426,411,waveblock_00269,0.0,1.0,0.0,-4.4,12.0,3.0,5.2,0.12,0.026,0.68,0.03,-2.8,5.0,8.2,0.14,0.032,0.45,0.8,14.0,0.05,1.15,3.8,0.75,4.0
8477,0.8782588179780583,0.788407611037655,0.8340659340659341,0.9518752824220515,0.4768856447688564,0.9440298507462687,0.8420947431541075,0.7596899224806202,3640,4426,411,waveblock_00270,0.0,1.0,0.0,-4.0,8.0,3.0,5.2,0.12,0.026,0.68,0.03,-3.6,5.0,8.2,0.14,0.032,0.45,0.8,10.0,0.05,1.15,3.8,0.75,4.0
8477,0.8782588179780583,0.788407611037655,0.8340659340659341,0.9518752824220515,0.4768856447688564,0.9440298507462687,0.8420947431541075,0.7596899224806202,3640,4426,411,waveblock_00271,0.0,1.0,0.0,-4.0,8.0,3.0,5.2,0.12,0.026,0.68,0.03,-3.6,5.0,8.2,0.14,0.032,0.45,0.8,12.0,0.05,1.15,3.8,0.75,4.0
8477,0.8782588179780583,0.788407611037655,0.8340659340659341,0.9518752824220515,0.4768856447688564,0.9440298507462687,0.8420947431541075,0.7596899224806202,3640,4426,411,waveblock_00272,0.0,1.0,0.0,-4.0,8.0,3.0,5.2,0.12,0.026,0.68,0.03,-3.6,5.0,8.2,0.14,0.032,0.45,0.8,14.0,0.05,1.15,3.8,0.75,4.0
8477,0.8803822106877434,0.789966858082699,0.8403846153846154,0.9507455942159964,0.4768856447688564,0.9429716399506781,0.8458291457286432,0.7596899224806202,3640,4426,411,waveblock_00273,0.0,1.0,0.0,-4.0,8.0,3.0,5.2,0.12,0.026,0.68,0.03,-3.2,5.0,8.2,0.14,0.032,0.45,0.8,10.0,0.05,1.15,3.8,0.75,4.0
8477,0.8803822106877434,0.789966858082699,0.8403846153846154,0.9507455942159964,0.4768856447688564,0.9429716399506781,0.8458291457286432,0.7596899224806202,3640,4426,411,waveblock_00274,0.0,1.0,0.0,-4.0,8.0,3.0,5.2,0.12,0.026,0.68,0.03,-3.2,5.0,8.2,0.14,0.032,0.45,0.8,12.0,0.05,1.15,3.8,0.75,4.0
8477,0.8803822106877434,0.789966858082699,0.8403846153846154,0.9507455942159964,0.4768856447688564,0.9429716399506781,0.8458291457286432,0.7596899224806202,3640,4426,411,waveblock_00275,0.0,1.0,0.0,-4.0,8.0,3.0,5.2,0.12,0.026,0.68,0.03,-3.2,5.0,8.2,0.14,0.032,0.45,0.8,14.0,0.05,1.15,3.8,0.75,4.0
8477,0.8812079745192875,0.790613466251196,0.8464285714285714,0.947356529597831,0.4768856447688564,0.9390429747028345,0.8491292021061159,0.7596899224806202,3640,4426,411,waveblock_00276,0.0,1.0,0.0,-4.0,8.0,3.0,5.2,0.12,0.026,0.68,0.03,-2.8,5.0,8.2,0.14,0.032,0.45,0.8,10.0,0.05,1.15,3.8,0.75,4.0
8477,0.8812079745192875,0.790613466251196,0.8464285714285714,0.947356529597831,0.4768856447688564,0.9390429747028345,0.8491292021061159,0.7596899224806202,3640,4426,411,waveblock_00277,0.0,1.0,0.0,-4.0,8.0,3.0,5.2,0.12,0.026,0.68,0.03,-2.8,5.0,8.2,0.14,0.032,0.45,0.8,12.0,0.05,1.15,3.8,0.75,4.0
8477,0.8812079745192875,0.790613466251196,0.8464285714285714,0.947356529597831,0.4768856447688564,0.9390429747028345,0.8491292021061159,0.7596899224806202,3640,4426,411,waveblock_00278,0.0,1.0,0.0,-4.0,8.0,3.0,5.2,0.12,0.026,0.68,0.03,-2.8,5.0,8.2,0.14,0.032,0.45,0.8,14.0,0.05,1.15,3.8,0.75,4.0
8477,0.8782588179780583,0.788407611037655,0.8340659340659341,0.9518752824220515,0.4768856447688564,0.9440298507462687,0.8420947431541075,0.7596899224806202,3640,4426,411,waveblock_00279,0.0,1.0,0.0,-4.0,10.0,3.0,5.2,0.12,0.026,0.68,0.03,-3.6,5.0,8.2,0.14,0.032,0.45,0.8,10.0,0.05,1.15,3.8,0.75,4.0
8477,0.8782588179780583,0.788407611037655,0.8340659340659341,0.9518752824220515,0.4768856447688564,0.9440298507462687,0.8420947431541075,0.7596899224806202,3640,4426,411,waveblock_00280,0.0,1.0,0.0,-4.0,10.0,3.0,5.2,0.12,0.026,0.68,0.03,-3.6,5.0,8.2,0.14,0.032,0.45,0.8,12.0,0.05,1.15,3.8,0.75,4.0
8477,0.8782588179780583,0.788407611037655,0.8340659340659341,0.9518752824220515,0.4768856447688564,0.9440298507462687,0.8420947431541075,0.7596899224806202,3640,4426,411,waveblock_00281,0.0,1.0,0.0,-4.0,10.0,3.0,5.2,0.12,0.026,0.68,0.03,-3.6,5.0,8.2,0.14,0.032,0.45,0.8,14.0,0.05,1.15,3.8,0.75,4.0
8477,0.8803822106877434,0.789966858082699,0.8403846153846154,0.9507455942159964,0.4768856447688564,0.9429716399506781,0.8458291457286432,0.7596899224806202,3640,4426,411,waveblock_00282,0.0,1.0,0.0,-4.0,10.0,3.0,5.2,0.12,0.026,0.68,0.03,-3.2,5.0,8.2,0.14,0.032,0.45,0.8,10.0,0.05,1.15,3.8,0.75,4.0
8477,0.8803822106877434,0.789966858082699,0.8403846153846154,0.9507455942159964,0.4768856447688564,0.9429716399506781,0.8458291457286432,0.7596899224806202,3640,4426,411,waveblock_00283,0.0,1.0,0.0,-4.0,10.0,3.0,5.2,0.12,0.026,0.68,0.03,-3.2,5.0,8.2,0.14,0.032,0.45,0.8,12.0,0.05,1.15,3.8,0.75,4.0
8477,0.8803822106877434,0.789966858082699,0.8403846153846154,0.9507455942159964,0.4768856447688564,0.9429716399506781,0.8458291457286432,0.7596899224806202,3640,4426,411,waveblock_00284,0.0,1.0,0.0,-4.0,10.0,3.0,5.2,0.12,0.026,0.68,0.03,-3.2,5.0,8.2,0.14,0.032,0.45,0.8,14.0,0.05,1.15,3.8,0.75,4.0
8477,0.8812079745192875,0.790613466251196,0.8464285714285714,0.947356529597831,0.4768856447688564,0.9390429747028345,0.8491292021061159,0.7596899224806202,3640,4426,411,waveblock_00285,0.0,1.0,0.0,-4.0,10.0,3.0,5.2,0.12,0.026,0.68,0.03,-2.8,5.0,8.2,0.14,0.032,0.45,0.8,10.0,0.05,1.15,3.8,0.75,4.0
8477,0.8812079745192875,0.790613466251196,0.8464285714285714,0.947356529597831,0.4768856447688564,0.9390429747028345,0.8491292021061159,0.7596899224806202,3640,4426,411,waveblock_00286,0.0,1.0,0.0,-4.0,10.0,3.0,5.2,0.12,0.026,0.68,0.03,-2.8,5.0,8.2,0.14,0.032,0.45,0.8,12.0,0.05,1.15,3.8,0.75,4.0
8477,0.8812079745192875,0.790613466251196,0.8464285714285714,0.947356529597831,0.4768856447688564,0.9390429747028345,0.8491292021061159,0.7596899224806202,3640,4426,411,waveblock_00287,0.0,1.0,0.0,-4.0,10.0,3.0,5.2,0.12,0.026,0.68,0.03,-2.8,5.0,8.2,0.14,0.032,0.45,0.8,14.0,0.05,1.15,3.8,0.75,4.0
8477,0.8782588179780583,0.788407611037655,0.8340659340659341,0.9518752824220515,0.4768856447688564,0.9440298507462687,0.8420947431541075,0.7596899224806202,3640,4426,411,waveblock_00288,0.0,1.0,0.0,-4.0,12.0,3.0,5.2,0.12,0.026,0.68,0.03,-3.6,5.0,8.2,0.14,0.032,0.45,0.8,10.0,0.05,1.15,3.8,0.75,4.0
8477,0.8782588179780583,0.788407611037655,0.8340659340659341,0.9518752824220515,0.4768856447688564,0.9440298507462687,0.8420947431541075,0.7596899224806202,3640,4426,411,waveblock_00289,0.0,1.0,0.0,-4.0,12.0,3.0,5.2,0.12,0.026,0.68,0.03,-3.6,5.0,8.2,0.14,0.032,0.45,0.8,12.0,0.05,1.15,3.8,0.75,4.0
8477,0.8782588179780583,0.788407611037655,0.8340659340659341,0.9518752824220515,0.4768856447688564,0.9440298507462687,0.8420947431541075,0.7596899224806202,3640,4426,411,waveblock_00290,0.0,1.0,0.0,-4.0,12.0,3.0,5.2,0.12,0.026,0.68,0.03,-3.6,5.0,8.2,0.14,0.032,0.45,0.8,14.0,0.05,1.15,3.8,0.75,4.0
8477,0.8803822106877434,0.789966858082699,0.8403846153846154,0.9507455942159964,0.4768856447688564,0.9429716399506781,0.8458291457286432,0.7596899224806202,3640,4426,411,waveblock_00291,0.0,1.0,0.0,-4.0,12.0,3.0,5.2,0.12,0.026,0.68,0.03,-3.2,5.0,8.2,0.14,0.032,0.45,0.8,10.0,0.05,1.15,3.8,0.75,4.0
8477,0.8803822106877434,0.789966858082699,0.8403846153846154,0.9507455942159964,0.4768856447688564,0.9429716399506781,0.8458291457286432,0.7596899224806202,3640,4426,411,waveblock_00292,0.0,1.0,0.0,-4.0,12.0,3.0,5.2,0.12,0.026,0.68,0.03,-3.2,5.0,8.2,0.14,0.032,0.45,0.8,12.0,0.05,1.15,3.8,0.75,4.0
8477,0.8803822106877434,0.789966858082699,0.8403846153846154,0.9507455942159964,0.4768856447688564,0.9429716399506781,0.8458291457286432,0.7596899224806202,3640,4426,411,waveblock_00293,0.0,1.0,0.0,-4.0,12.0,3.0,5.2,0.12,0.026,0.68,0.03,-3.2,5.0,8.2,0.14,0.032,0.45,0.8,14.0,0.05,1.15,3.8,0.75,4.0
8477,0.8812079745192875,0.790613466251196,0.8464285714285714,0.947356529597831,0.4768856447688564,0.9390429747028345,0.8491292021061159,0.7596899224806202,3640,4426,411,waveblock_00294,0.0,1.0,0.0,-4.0,12.0,3.0,5.2,0.12,0.026,0.68,0.03,-2.8,5.0,8.2,0.14,0.032,0.45,0.8,10.0,0.05,1.15,3.8,0.75,4.0
8477,0.8812079745192875,0.790613466251196,0.8464285714285714,0.947356529597831,0.4768856447688564,0.9390429747028345,0.8491292021061159,0.7596899224806202,3640,4426,411,waveblock_00295,0.0,1.0,0.0,-4.0,12.0,3.0,5.2,0.12,0.026,0.68,0.03,-2.8,5.0,8.2,0.14,0.032,0.45,0.8,12.0,0.05,1.15,3.8,0.75,4.0
8477,0.8812079745192875,0.790613466251196,0.8464285714285714,0.947356529597831,0.4768856447688564,0.9390429747028345,0.8491292021061159,0.7596899224806202,3640,4426,411,waveblock_00296,0.0,1.0,0.0,-4.0,12.0,3.0,5.2,0.12,0.026,0.68,0.03,-2.8,5.0,8.2,0.14,0.032,0.45,0.8,14.0,0.05,1.15,3.8,0.75,4.0
8477,0.8782588179780583,0.788407611037655,0.8340659340659341,0.9518752824220515,0.4768856447688564,0.9440298507462687,0.8420947431541075,0.7596899224806202,3640,4426,411,waveblock_00297,0.0,1.0,0.0,-3.6,8.0,3.0,5.2,0.12,0.026,0.68,0.03,-3.6,5.0,8.2,0.14,0.032,0.45,0.8,10.0,0.05,1.15,3.8,0.75,4.0
8477,0.8782588179780583,0.788407611037655,0.8340659340659341,0.9518752824220515,0.4768856447688564,0.9440298507462687,0.8420947431541075,0.7596899224806202,3640,4426,411,waveblock_00298,0.0,1.0,0.0,-3.6,8.0,3.0,5.2,0.12,0.026,0.68,0.03,-3.6,5.0,8.2,0.14,0.032,0.45,0.8,12.0,0.05,1.15,3.8,0.75,4.0
8477,0.8782588179780583,0.788407611037655,0.8340659340659341,0.9518752824220515,0.4768856447688564,0.9440298507462687,0.8420947431541075,0.7596899224806202,3640,4426,411,waveblock_00299,0.0,1.0,0.0,-3.6,8.0,3.0,5.2,0.12,0.026,0.68,0.03,-3.6,5.0,8.2,0.14,0.032,0.45,0.8,14.0,0.05,1.15,3.8,0.75,4.0
8477,0.8803822106877434,0.789966858082699,0.8403846153846154,0.9507455942159964,0.4768856447688564,0.9429716399506781,0.8458291457286432,0.7596899224806202,3640,4426,411,waveblock_00300,0.0,1.0,0.0,-3.6,8.0,3.0,5.2,0.12,0.026,0.68,0.03,-3.2,5.0,8.2,0.14,0.032,0.45,0.8,10.0,0.05,1.15,3.8,0.75,4.0
8477,0.8803822106877434,0.789966858082699,0.8403846153846154,0.9507455942159964,0.4768856447688564,0.9429716399506781,0.8458291457286432,0.7596899224806202,3640,4426,411,waveblock_00301,0.0,1.0,0.0,-3.6,8.0,3.0,5.2,0.12,0.026,0.68,0.03,-3.2,5.0,8.2,0.14,0.032,0.45,0.8,12.0,0.05,1.15,3.8,0.75,4.0
8477,0.8803822106877434,0.789966858082699,0.8403846153846154,0.9507455942159964,0.4768856447688564,0.9429716399506781,0.8458291457286432,0.7596899224806202,3640,4426,411,waveblock_00302,0.0,1.0,0.0,-3.6,8.0,3.0,5.2,0.12,0.026,0.68,0.03,-3.2,5.0,8.2,0.14,0.032,0.45,0.8,14.0,0.05,1.15,3.8,0.75,4.0
8477,0.8812079745192875,0.790613466251196,0.8464285714285714,0.947356529597831,0.4768856447688564,0.9390429747028345,0.8491292021061159,0.7596899224806202,3640,4426,411,waveblock_00303,0.0,1.0,0.0,-3.6,8.0,3.0,5.2,0.12,0.026,0.68,0.03,-2.8,5.0,8.2,0.14,0.032,0.45,0.8,10.0,0.05,1.15,3.8,0.75,4.0
8477,0.8812079745192875,0.790613466251196,0.8464285714285714,0.947356529597831,0.4768856447688564,0.9390429747028345,0.8491292021061159,0.7596899224806202,3640,4426,411,waveblock_00304,0.0,1.0,0.0,-3.6,8.0,3.0,5.2,0.12,0.026,0.68,0.03,-2.8,5.0,8.2,0.14,0.032,0.45,0.8,12.0,0.05,1.15,3.8,0.75,4.0
8477,0.8812079745192875,0.790613466251196,0.8464285714285714,0.947356529597831,0.4768856447688564,0.9390429747028345,0.8491292021061159,0.7596899224806202,3640,4426,411,waveblock_00305,0.0,1.0,0.0,-3.6,8.0,3.0,5.2,0.12,0.026,0.68,0.03,-2.8,5.0,8.2,0.14,0.032,0.45,0.8,14.0,0.05,1.15,3.8,0.75,4.0
8477,0.8782588179780583,0.788407611037655,0.8340659340659341,0.9518752824220515,0.4768856447688564,0.9440298507462687,0.8420947431541075,0.7596899224806202,3640,4426,411,waveblock_00306,0.0,1.0,0.0,-3.6,10.0,3.0,5.2,0.12,0.026,0.68,0.03,-3.6,5.0,8.2,0.14,0.032,0.45,0.8,10.0,0.05,1.15,3.8,0.75,4.0
8477,0.8782588179780583,0.788407611037655,0.8340659340659341,0.9518752824220515,0.4768856447688564,0.9440298507462687,0.8420947431541075,0.7596899224806202,3640,4426,411,waveblock_00307,0.0,1.0,0.0,-3.6,10.0,3.0,5.2,0.12,0.026,0.68,0.03,-3.6,5.0,8.2,0.14,0.032,0.45,0.8,12.0,0.05,1.15,3.8,0.75,4.0
8477,0.8782588179780583,0.788407611037655,0.8340659340659341,0.9518752824220515,0.4768856447688564,0.9440298507462687,0.8420947431541075,0.7596899224806202,3640,4426,411,waveblock_00308,0.0,1.0,0.0,-3.6,10.0,3.0,5.2,0.12,0.026,0.68,0.03,-3.6,5.0,8.2,0.14,0.032,0.45,0.8,14.0,0.05,1.15,3.8,0.75,4.0
8477,0.8803822106877434,0.789966858082699,0.8403846153846154,0.9507455942159964,0.4768856447688564,0.9429716399506781,0.8458291457286432,0.7596899224806202,3640,4426,411,waveblock_00309,0.0,1.0,0.0,-3.6,10.0,3.0,5.2,0.12,0.026,0.68,0.03,-3.2,5.0,8.2,0.14,0.032,0.45,0.8,10.0,0.05,1.15,3.8,0.75,4.0
8477,0.8803822106877434,0.789966858082699,0.8403846153846154,0.9507455942159964,0.4768856447688564,0.9429716399506781,0.8458291457286432,0.7596899224806202,3640,4426,411,waveblock_00310,0.0,1.0,0.0,-3.6,10.0,3.0,5.2,0.12,0.026,0.68,0.03,-3.2,5.0,8.2,0.14,0.032,0.45,0.8,12.0,0.05,1.15,3.8,0.75,4.0
8477,0.8803822106877434,0.789966858082699,0.8403846153846154,0.9507455942159964,0.4768856447688564,0.9429716399506781,0.8458291457286432,0.7596899224806202,3640,4426,411,waveblock_00311,0.0,1.0,0.0,-3.6,10.0,3.0,5.2,0.12,0.026,0.68,0.03,-3.2,5.0,8.2,0.14,0.032,0.45,0.8,14.0,0.05,1.15,3.8,0.75,4.0
8477,0.8812079745192875,0.790613466251196,0.8464285714285714,0.947356529597831,0.4768856447688564,0.9390429747028345,0.8491292021061159,0.7596899224806202,3640,4426,411,waveblock_00312,0.0,1.0,0.0,-3.6,10.0,3.0,5.2,0.12,0.026,0.68,0.03,-2.8,5.0,8.2,0.14,0.032,0.45,0.8,10.0,0.05,1.15,3.8,0.75,4.0
8477,0.8812079745192875,0.790613466251196,0.8464285714285714,0.947356529597831,0.4768856447688564,0.9390429747028345,0.8491292021061159,0.7596899224806202,3640,4426,411,waveblock_00313,0.0,1.0,0.0,-3.6,10.0,3.0,5.2,0.12,0.026,0.68,0.03,-2.8,5.0,8.2,0.14,0.032,0.45,0.8,12.0,0.05,1.15,3.8,0.75,4.0
8477,0.8812079745192875,0.790613466251196,0.8464285714285714,0.947356529597831,0.4768856447688564,0.9390429747028345,0.8491292021061159,0.7596899224806202,3640,4426,411,waveblock_00314,0.0,1.0,0.0,-3.6,10.0,3.0,5.2,0.12,0.026,0.68,0.03,-2.8,5.0,8.2,0.14,0.032,0.45,0.8,14.0,0.05,1.15,3.8,0.75,4.0
8477,0.8782588179780583,0.788407611037655,0.8340659340659341,0.9518752824220515,0.4768856447688564,0.9440298507462687,0.8420947431541075,0.7596899224806202,3640,4426,411,waveblock_00315,0.0,1.0,0.0,-3.6,12.0,3.0,5.2,0.12,0.026,0.68,0.03,-3.6,5.0,8.2,0.14,0.032,0.45,0.8,10.0,0.05,1.15,3.8,0.75,4.0
8477,0.8782588179780583,0.788407611037655,0.8340659340659341,0.9518752824220515,0.4768856447688564,0.9440298507462687,0.8420947431541075,0.7596899224806202,3640,4426,411,waveblock_00316,0.0,1.0,0.0,-3.6,12.0,3.0,5.2,0.12,0.026,0.68,0.03,-3.6,5.0,8.2,0.14,0.032,0.45,0.8,12.0,0.05,1.15,3.8,0.75,4.0
8477,0.8782588179780583,0.788407611037655,0.8340659340659341,0.9518752824220515,0.4768856447688564,0.9440298507462687,0.8420947431541075,0.7596899224806202,3640,4426,411,waveblock_00317,0.0,1.0,0.0,-3.6,12.0,3.0,5.2,0.12,0.026,0.68,0.03,-3.6,5.0,8.2,0.14,0.032,0.45,0.8,14.0,0.05,1.15,3.8,0.75,4.0
8477,0.8803822106877434,0.789966858082699,0.8403846153846154,0.9507455942159964,0.4768856447688564,0.9429716399506781,0.8458291457286432,0.7596899224806202,3640,4426,411,waveblock_00318,0.0,1.0,0.0,-3.6,12.0,3.0,5.2,0.12,0.026,0.68,0.03,-3.2,5.0,8.2,0.14,0.032,0.45,0.8,10.0,0.05,1.15,3.8,0.75,4.0
8477,0.8803822106877434,0.789966858082699,0.8403846153846154,0.9507455942159964,0.4768856447688564,0.9429716399506781,0.8458291457286432,0.7596899224806202,3640,4426,411,waveblock_00319,0.0,1.0,0.0,-3.6,12.0,3.0,5.2,0.12,0.026,0.68,0.03,-3.2,5.0,8.2,0.14,0.032,0.45,0.8,12.0,0.05,1.15,3.8,0.75,4.0
8477,0.8803822106877434,0.789966858082699,0.8403846153846154,0.9507455942159964,0.4768856447688564,0.9429716399506781,0.8458291457286432,0.7596899224806202,3640,4426,411,waveblock_00320,0.0,1.0,0.0,-3.6,12.0,3.0,5.2,0.12,0.026,0.68,0.03,-3.2,5.0,8.2,0.14,0.032,0.45,0.8,14.0,0.05,1.15,3.8,0.75,4.0
8477,0.8812079745192875,0.790613466251196,0.8464285714285714,0.947356529597831,0.4768856447688564,0.9390429747028345,0.8491292021061159,0.7596899224806202,3640,4426,411,waveblock_00321,0.0,1.0,0.0,-3.6,12.0,3.0,5.2,0.12,0.026,0.68,0.03,-2.8,5.0,8.2,0.14,0.032,0.45,0.8,10.0,0.05,1.15,3.8,0.75,4.0
8477,0.8812079745192875,0.790613466251196,0.8464285714285714,0.947356529597831,0.4768856447688564,0.9390429747028345,0.8491292021061159,0.7596899224806202,3640,4426,411,waveblock_00322,0.0,1.0,0.0,-3.6,12.0,3.0,5.2,0.12,0.026,0.68,0.03,-2.8,5.0,8.2,0.14,0.032,0.45,0.8,12.0,0.05,1.15,3.8,0.75,4.0
8477,0.8812079745192875,0.790613466251196,0.8464285714285714,0.947356529597831,0.4768856447688564,0.9390429747028345,0.8491292021061159,0.7596899224806202,3640,4426,411,waveblock_00323,0.0,1.0,0.0,-3.6,12.0,3.0,5.2,0.12,0.026,0.68,0.03,-2.8,5.0,8.2,0.14,0.032,0.45,0.8,14.0,0.05,1.15,3.8,0.75,4.0
8477,0.8184499233219299,0.7095206905089366,0.8340659340659341,0.8185720741075463,0.6788321167883211,0.9440298507462687,0.8371072088724584,0.2990353697749196,3640,4426,411,waveblock_00324,0.0,1.0,1.0,-4.8,8.0,3.0,5.2,0.12,0.026,0.68,0.03,-3.6,5.0,8.2,0.14,0.032,0.45,0.8,10.0,0.05,1.15,3.8,0.75,4.0
8477,0.8277692579922142,0.7188715232193781,0.8340659340659341,0.8386805241753276,0.6545012165450121,0.9440298507462687,0.8383017163504969,0.32292917166866747,3640,4426,411,waveblock_00325,0.0,1.0,1.0,-4.8,8.0,3.0,5.2,0.12,0.026,0.68,0.03,-3.6,5.0,8.2,0.14,0.032,0.45,0.8,12.0,0.05,1.15,3.8,0.75,4.0
8477,0.8390940191105344,0.7293297946806443,0.8340659340659341,0.8646633529145956,0.6082725060827251,0.9440298507462687,0.8387026079333771,0.35816618911174786,3640,4426,411,waveblock_00326,0.0,1.0,1.0,-4.8,8.0,3.0,5.2,0.12,0.026,0.68,0.03,-3.6,5.0,8.2,0.14,0.032,0.45,0.8,14.0,0.05,1.15,3.8,0.75,4.0
8477,0.820573316031615,0.7110506623826208,0.8403846153846154,0.8174423859014912,0.6788321167883211,0.9429716399506781,0.8413953488372093,0.2990353697749196,3640,4426,411,waveblock_00327,0.0,1.0,1.0,-4.8,8.0,3.0,5.2,0.12,0.026,0.68,0.03,-3.2,5.0,8.2,0.14,0.032,0.45,0.8,10.0,0.05,1.15,3.8,0.75,4.0
8477,0.8298926507018992,0.7204071655075707,0.8403846153846154,0.8375508359692725,0.6545012165450121,0.9429716399506781,0.8425,0.32292917166866747,3640,4426,411,waveblock_00328,0.0,1.0,1.0,-4.8,8.0,3.0,5.2,0.12,0.026,0.68,0.03,-3.2,5.0,8.2,0.14,0.032,0.45,0.8,12.0,0.05,1.15,3.8,0.75,4.0
8477,0.8412174118202194,0.7308713024650215,0.8403846153846154,0.8635336647085404,0.6082725060827251,0.9429716399506781,0.8427783902976846,0.35816618911174786,3640,4426,411,waveblock_00329,0.0,1.0,1.0,-4.8,8.0,3.0,5.2,0.12,0.026,0.68,0.03,-3.2,5.0,8.2,0.14,0.032,0.45,0.8,14.0,0.05,1.15,3.8,0.75,4.0
8477,0.8213990798631592,0.7116122571388895,0.8464285714285714,0.8140533212833257,0.6788321167883211,0.9390429747028345,0.8451794510907812,0.2990353697749196,3640,4426,411,waveblock_00330,0.0,1.0,1.0,-4.8,8.0,3.0,5.2,0.12,0.026,0.68,0.03,-2.8,5.0,8.2,0.14,0.032,0.45,0.8,10.0,0.05,1.15,3.8,0.75,4.0
8477,0.8307184145334434,0.7209835788295992,0.8464285714285714,0.8341617713511071,0.6545012165450121,0.9390429747028345,0.8462067384826953,0.32292917166866747,3640,4426,411,waveblock_00331,0.0,1.0,1.0,-4.8,8.0,3.0,5.2,0.12,0.026,0.68,0.03,-2.8,5.0,8.2,0.14,0.032,0.45,0.8,12.0,0.05,1.15,3.8,0.75,4.0
8477,0.8420431756517636,0.7314650784225537,0.8464285714285714,0.8601446000903751,0.6082725060827251,0.9390429747028345,0.8463761671854158,0.35816618911174786,3640,4426,411,waveblock_00332,0.0,1.0,1.0,-4.8,8.0,3.0,5.2,0.12,0.026,0.68,0.03,-2.8,5.0,8.2,0.14,0.032,0.45,0.8,14.0,0.05,1.15,3.8,0.75,4.0
8477,0.8184499233219299,0.7095206905089366,0.8340659340659341,0.8185720741075463,0.6788321167883211,0.9440298507462687,0.8371072088724584,0.2990353697749196,3640,4426,411,waveblock_00333,0.0,1.0,1.0,-4.8,10.0,3.0,5.2,0.12,0.026,0.68,0.03,-3.6,5.0,8.2,0.14,0.032,0.45,0.8,10.0,0.05,1.15,3.8,0.75,4.0
8477,0.8277692579922142,0.7188715232193781,0.8340659340659341,0.8386805241753276,0.6545012165450121,0.9440298507462687,0.8383017163504969,0.32292917166866747,3640,4426,411,waveblock_00334,0.0,1.0,1.0,-4.8,10.0,3.0,5.2,0.12,0.026,0.68,0.03,-3.6,5.0,8.2,0.14,0.032,0.45,0.8,12.0,0.05,1.15,3.8,0.75,4.0
8477,0.8390940191105344,0.7293297946806443,0.8340659340659341,0.8646633529145956,0.6082725060827251,0.9440298507462687,0.8387026079333771,0.35816618911174786,3640,4426,411,waveblock_00335,0.0,1.0,1.0,-4.8,10.0,3.0,5.2,0.12,0.026,0.68,0.03,-3.6,5.0,8.2,0.14,0.032,0.45,0.8,14.0,0.05,1.15,3.8,0.75,4.0
8477,0.820573316031615,0.7110506623826208,0.8403846153846154,0.8174423859014912,0.6788321167883211,0.9429716399506781,0.8413953488372093,0.2990353697749196,3640,4426,411,waveblock_00336,0.0,1.0,1.0,-4.8,10.0,3.0,5.2,0.12,0.026,0.68,0.03,-3.2,5.0,8.2,0.14,0.032,0.45,0.8,10.0,0.05,1.15,3.8,0.75,4.0
8477,0.8298926507018992,0.7204071655075707,0.8403846153846154,0.8375508359692725,0.6545012165450121,0.9429716399506781,0.8425,0.32292917166866747,3640,4426,411,waveblock_00337,0.0,1.0,1.0,-4.8,10.0,3.0,5.2,0.12,0.026,0.68,0.03,-3.2,5.0,8.2,0.14,0.032,0.45,0.8,12.0,0.05,1.15,3.8,0.75,4.0
8477,0.8412174118202194,0.7308713024650215,0.8403846153846154,0.8635336647085404,0.6082725060827251,0.9429716399506781,0.8427783902976846,0.35816618911174786,3640,4426,411,waveblock_00338,0.0,1.0,1.0,-4.8,10.0,3.0,5.2,0.12,0.026,0.68,0.03,-3.2,5.0,8.2,0.14,0.032,0.45,0.8,14.0,0.05,1.15,3.8,0.75,4.0
8477,0.8213990798631592,0.7116122571388895,0.8464285714285714,0.8140533212833257,0.6788321167883211,0.9390429747028345,0.8451794510907812,0.2990353697749196,3640,4426,411,waveblock_00339,0.0,1.0,1.0,-4.8,10.0,3.0,5.2,0.12,0.026,0.68,0.03,-2.8,5.0,8.2,0.14,0.032,0.45,0.8,10.0,0.05,1.15,3.8,0.75,4.0
8477,0.8307184145334434,0.7209835788295992,0.8464285714285714,0.8341617713511071,0.6545012165450121,0.9390429747028345,0.8462067384826953,0.32292917166866747,3640,4426,411,waveblock_00340,0.0,1.0,1.0,-4.8,10.0,3.0,5.2,0.12,0.026,0.68,0.03,-2.8,5.0,8.2,0.14,0.032,0.45,0.8,12.0,0.05,1.15,3.8,0.75,4.0
8477,0.8420431756517636,0.7314650784225537,0.8464285714285714,0.8601446000903751,0.6082725060827251,0.9390429747028345,0.8463761671854158,0.35816618911174786,3640,4426,411,waveblock_00341,0.0,1.0,1.0,-4.8,10.0,3.0,5.2,0.12,0.026,0.68,0.03,-2.8,5.0,8.2,0.14,0.032,0.45,0.8,14.0,0.05,1.15,3.8,0.75,4.0
8477,0.8184499233219299,0.7095206905089366,0.8340659340659341,0.8185720741075463,0.6788321167883211,0.9440298507462687,0.8371072088724584,0.2990353697749196,3640,4426,411,waveblock_00342,0.0,1.0,1.0,-4.8,12.0,3.0,5.2,0.12,0.026,0.68,0.03,-3.6,5.0,8.2,0.14,0.032,0.45,0.8,10.0,0.05,1.15,3.8,0.75,4.0
8477,0.8277692579922142,0.7188715232193781,0.8340659340659341,0.8386805241753276,0.6545012165450121,0.9440298507462687,0.8383017163504969,0.32292917166866747,3640,4426,411,waveblock_00343,0.0,1.0,1.0,-4.8,12.0,3.0,5.2,0.12,0.026,0.68,0.03,-3.6,5.0,8.2,0.14,0.032,0.45,0.8,12.0,0.05,1.15,3.8,0.75,4.0
8477,0.8390940191105344,0.7293297946806443,0.8340659340659341,0.8646633529145956,0.6082725060827251,0.9440298507462687,0.8387026079333771,0.35816618911174786,3640,4426,411,waveblock_00344,0.0,1.0,1.0,-4.8,12.0,3.0,5.2,0.12,0.026,0.68,0.03,-3.6,5.0,8.2,0.14,0.032,0.45,0.8,14.0,0.05,1.15,3.8,0.75,4.0
8477,0.820573316031615,0.7110506623826208,0.8403846153846154,0.8174423859014912,0.6788321167883211,0.9429716399506781,0.8413953488372093,0.2990353697749196,3640,4426,411,waveblock_00345,0.0,1.0,1.0,-4.8,12.0,3.0,5.2,0.12,0.026,0.68,0.03,-3.2,5.0,8.2,0.14,0.032,0.45,0.8,10.0,0.05,1.15,3.8,0.75,4.0
8477,0.8298926507018992,0.7204071655075707,0.8403846153846154,0.8375508359692725,0.6545012165450121,0.9429716399506781,0.8425,0.32292917166866747,3640,4426,411,waveblock_00346,0.0,1.0,1.0,-4.8,12.0,3.0,5.2,0.12,0.026,0.68,0.03,-3.2,5.0,8.2,0.14,0.032,0.45,0.8,12.0,0.05,1.15,3.8,0.75,4.0
8477,0.8412174118202194,0.7308713024650215,0.8403846153846154,0.8635336647085404,0.6082725060827251,0.9429716399506781,0.8427783902976846,0.35816618911174786,3640,4426,411,waveblock_00347,0.0,1.0,1.0,-4.8,12.0,3.0,5.2,0.12,0.026,0.68,0.03,-3.2,5.0,8.2,0.14,0.032,0.45,0.8,14.0,0.05,1.15,3.8,0.75,4.0
8477,0.8213990798631592,0.7116122571388895,0.8464285714285714,0.8140533212833257,0.6788321167883211,0.9390429747028345,0.8451794510907812,0.2990353697749196,3640,4426,411,waveblock_00348,0.0,1.0,1.0,-4.8,12.0,3.0,5.2,0.12,0.026,0.68,0.03,-2.8,5.0,8.2,0.14,0.032,0.45,0.8,10.0,0.05,1.15,3.8,0.75,4.0
8477,0.8307184145334434,0.7209835788295992,0.8464285714285714,0.8341617713511071,0.6545012165450121,0.9390429747028345,0.8462067384826953,0.32292917166866747,3640,4426,411,waveblock_00349,0.0,1.0,1.0,-4.8,12.0,3.0,5.2,0.12,0.026,0.68,0.03,-2.8,5.0,8.2,0.14,0.032,0.45,0.8,12.0,0.05,1.15,3.8,0.75,4.0
8477,0.8420431756517636,0.7314650784225537,0.8464285714285714,0.8601446000903751,0.6082725060827251,0.9390429747028345,0.8463761671854158,0.35816618911174786,3640,4426,411,waveblock_00350,0.0,1.0,1.0,-4.8,12.0,3.0,5.2,0.12,0.026,0.68,0.03,-2.8,5.0,8.2,0.14,0.032,0.45,0.8,14.0,0.05,1.15,3.8,0.75,4.0
8477,0.8184499233219299,0.7095206905089366,0.8340659340659341,0.8185720741075463,0.6788321167883211,0.9440298507462687,0.8371072088724584,0.2990353697749196,3640,4426,411,waveblock_00351,0.0,1.0,1.0,-4.4,8.0,3.0,5.2,0.12,0.026,0.68,0.03,-3.6,5.0,8.2,0.14,0.032,0.45,0.8,10.0,0.05,1.15,3.8,0.75,4.0
8477,0.8277692579922142,0.7188715232193781,0.8340659340659341,0.8386805241753276,0.6545012165450121,0.9440298507462687,0.8383017163504969,0.32292917166866747,3640,4426,411,waveblock_00352,0.0,1.0,1.0,-4.4,8.0,3.0,5.2,0.12,0.026,0.68,0.03,-3.6,5.0,8.2,0.14,0.032,0.45,0.8,12.0,0.05,1.15,3.8,0.75,4.0
8477,0.8390940191105344,0.7293297946806443,0.8340659340659341,0.8646633529145956,0.6082725060827251,0.9440298507462687,0.8387026079333771,0.35816618911174786,3640,4426,411,waveblock_00353,0.0,1.0,1.0,-4.4,8.0,3.0,5.2,0.12,0.026,0.68,0.03,-3.6,5.0,8.2,0.14,0.032,0.45,0.8,14.0,0.05,1.15,3.8,0.75,4.0
8477,0.820573316031615,0.7110506623826208,0.8403846153846154,0.8174423859014912,0.6788321167883211,0.9429716399506781,0.8413953488372093,0.2990353697749196,3640,4426,411,waveblock_00354,0.0,1.0,1.0,-4.4,8.0,3.0,5.2,0.12,0.026,0.68,0.03,-3.2,5.0,8.2,0.14,0.032,0.45,0.8,10.0,0.05,1.15,3.8,0.75,4.0
8477,0.8298926507018992,0.7204071655075707,0.8403846153846154,0.8375508359692725,0.6545012165450121,0.9429716399506781,0.8425,0.32292917166866747,3640,4426,411,waveblock_00355,0.0,1.0,1.0,-4.4,8.0,3.0,5.2,0.12,0.026,0.68,0.03,-3.2,5.0,8.2,0.14,0.032,0.45,0.8,12.0,0.05,1.15,3.8,0.75,4.0
8477,0.8412174118202194,0.7308713024650215,0.8403846153846154,0.8635336647085404,0.6082725060827251,0.9429716399506781,0.8427783902976846,0.35816618911174786,3640,4426,411,waveblock_00356,0.0,1.0,1.0,-4.4,8.0,3.0,5.2,0.12,0.026,0.68,0.03,-3.2,5.0,8.2,0.14,0.032,0.45,0.8,14.0,0.05,1.15,3.8,0.75,4.0
8477,0.8213990798631592,0.7116122571388895,0.8464285714285714,0.8140533212833257,0.6788321167883211,0.9390429747028345,0.8451794510907812,0.2990353697749196,3640,4426,411,waveblock_00357,0.0,1.0,1.0,-4.4,8.0,3.0,5.2,0.12,0.026,0.68,0.03,-2.8,5.0,8.2,0.14,0.032,0.45,0.8,10.0,0.05,1.15,3.8,0.75,4.0
8477,0.8307184145334434,0.7209835788295992,0.8464285714285714,0.8341617713511071,0.6545012165450121,0.9390429747028345,0.8462067384826953,0.32292917166866747,3640,4426,411,waveblock_00358,0.0,1.0,1.0,-4.4,8.0,3.0,5.2,0.12,0.026,0.68,0.03,-2.8,5.0,8.2,0.14,0.032,0.45,0.8,12.0,0.05,1.15,3.8,0.75,4.0
8477,0.8420431756517636,0.7314650784225537,0.8464285714285714,0.8601446000903751,0.6082725060827251,0.9390429747028345,0.8463761671854158,0.35816618911174786,3640,4426,411,waveblock_00359,0.0,1.0,1.0,-4.4,8.0,3.0,5.2,0.12,0.026,0.68,0.03,-2.8,5.0,8.2,0.14,0.032,0.45,0.8,14.0,0.05,1.15,3.8,0.75,4.0
8477,0.8184499233219299,0.7095206905089366,0.8340659340659341,0.8185720741075463,0.6788321167883211,0.9440298507462687,0.8371072088724584,0.2990353697749196,3640,4426,411,waveblock_00360,0.0,1.0,1.0,-4.4,10.0,3.0,5.2,0.12,0.026,0.68,0.03,-3.6,5.0,8.2,0.14,0.032,0.45,0.8,10.0,0.05,1.15,3.8,0.75,4.0
8477,0.8277692579922142,0.7188715232193781,0.8340659340659341,0.8386805241753276,0.6545012165450121,0.9440298507462687,0.8383017163504969,0.32292917166866747,3640,4426,411,waveblock_00361,0.0,1.0,1.0,-4.4,10.0,3.0,5.2,0.12,0.026,0.68,0.03,-3.6,5.0,8.2,0.14,0.032,0.45,0.8,12.0,0.05,1.15,3.8,0.75,4.0
8477,0.8390940191105344,0.7293297946806443,0.8340659340659341,0.8646633529145956,0.6082725060827251,0.9440298507462687,0.8387026079333771,0.35816618911174786,3640,4426,411,waveblock_00362,0.0,1.0,1.0,-4.4,10.0,3.0,5.2,0.12,0.026,0.68,0.03,-3.6,5.0,8.2,0.14,0.032,0.45,0.8,14.0,0.05,1.15,3.8,0.75,4.0
8477,0.820573316031615,0.7110506623826208,0.8403846153846154,0.8174423859014912,0.6788321167883211,0.9429716399506781,0.8413953488372093,0.2990353697749196,3640,4426,411,waveblock_00363,0.0,1.0,1.0,-4.4,10.0,3.0,5.2,0.12,0.026,0.68,0.03,-3.2,5.0,8.2,0.14,0.032,0.45,0.8,10.0,0.05,1.15,3.8,0.75,4.0
8477,0.8298926507018992,0.7204071655075707,0.8403846153846154,0.8375508359692725,0.6545012165450121,0.9429716399506781,0.8425,0.32292917166866747,3640,4426,411,waveblock_00364,0.0,1.0,1.0,-4.4,10.0,3.0,5.2,0.12,0.026,0.68,0.03,-3.2,5.0,8.2,0.14,0.032,0.45,0.8,12.0,0.05,1.15,3.8,0.75,4.0
8477,0.8412174118202194,0.7308713024650215,0.8403846153846154,0.8635336647085404,0.6082725060827251,0.9429716399506781,0.8427783902976846,0.35816618911174786,3640,4426,411,waveblock_00365,0.0,1.0,1.0,-4.4,10.0,3.0,5.2,0.12,0.026,0.68,0.03,-3.2,5.0,8.2,0.14,0.032,0.45,0.8,14.0,0.05,1.15,3.8,0.75,4.0
8477,0.8213990798631592,0.7116122571388895,0.8464285714285714,0.8140533212833257,0.6788321167883211,0.9390429747028345,0.8451794510907812,0.2990353697749196,3640,4426,411,waveblock_00366,0.0,1.0,1.0,-4.4,10.0,3.0,5.2,0.12,0.026,0.68,0.03,-2.8,5.0,8.2,0.14,0.032,0.45,0.8,10.0,0.05,1.15,3.8,0.75,4.0
8477,0.8307184145334434,0.7209835788295992,0.8464285714285714,0.8341617713511071,0.6545012165450121,0.9390429747028345,0.8462067384826953,0.32292917166866747,3640,4426,411,waveblock_00367,0.0,1.0,1.0,-4.4,10.0,3.0,5.2,0.12,0.026,0.68,0.03,-2.8,5.0,8.2,0.14,0.032,0.45,0.8,12.0,0.05,1.15,3.8,0.75,4.0
8477,0.8420431756517636,0.7314650784225537,0.8464285714285714,0.8601446000903751,0.6082725060827251,0.9390429747028345,0.8463761671854158,0.35816618911174786,3640,4426,411,waveblock_00368,0.0,1.0,1.0,-4.4,10.0,3.0,5.2,0.12,0.026,0.68,0.03,-2.8,5.0,8.2,0.14,0.032,0.45,0.8,14.0,0.05,1.15,3.8,0.75,4.0
8477,0.8184499233219299,0.7095206905089366,0.8340659340659341,0.8185720741075463,0.6788321167883211,0.9440298507462687,0.8371072088724584,0.2990353697749196,3640,4426,411,waveblock_00369,0.0,1.0,1.0,-4.4,12.0,3.0,5.2,0.12,0.026,0.68,0.03,-3.6,5.0,8.2,0.14,0.032,0.45,0.8,10.0,0.05,1.15,3.8,0.75,4.0
8477,0.8277692579922142,0.7188715232193781,0.8340659340659341,0.8386805241753276,0.6545012165450121,0.9440298507462687,0.8383017163504969,0.32292917166866747,3640,4426,411,waveblock_00370,0.0,1.0,1.0,-4.4,12.0,3.0,5.2,0.12,0.026,0.68,0.03,-3.6,5.0,8.2,0.14,0.032,0.45,0.8,12.0,0.05,1.15,3.8,0.75,4.0
8477,0.8390940191105344,0.7293297946806443,0.8340659340659341,0.8646633529145956,0.6082725060827251,0.9440298507462687,0.8387026079333771,0.35816618911174786,3640,4426,411,waveblock_00371,0.0,1.0,1.0,-4.4,12.0,3.0,5.2,0.12,0.026,0.68,0.03,-3.6,5.0,8.2,0.14,0.032,0.45,0.8,14.0,0.05,1.15,3.8,0.75,4.0
8477,0.820573316031615,0.7110506623826208,0.8403846153846154,0.8174423859014912,0.6788321167883211,0.9429716399506781,0.8413953488372093,0.2990353697749196,3640,4426,411,waveblock_00372,0.0,1.0,1.0,-4.4,12.0,3.0,5.2,0.12,0.026,0.68,0.03,-3.2,5.0,8.2,0.14,0.032,0.45,0.8,10.0,0.05,1.15,3.8,0.75,4.0
8477,0.8298926507018992,0.7204071655075707,0.8403846153846154,0.8375508359692725,0.6545012165450121,0.9429716399506781,0.8425,0.32292917166866747,3640,4426,411,waveblock_00373,0.0,1.0,1.0,-4.4,12.0,3.0,5.2,0.12,0.026,0.68,0.03,-3.2,5.0,8.2,0.14,0.032,0.45,0.8,12.0,0.05,1.15,3.8,0.75,4.0
8477,0.8412174118202194,0.7308713024650215,0.8403846153846154,0.8635336647085404,0.6082725060827251,0.9429716399506781,0.8427783902976846,0.35816618911174786,3640,4426,411,waveblock_00374,0.0,1.0,1.0,-4.4,12.0,3.0,5.2,0.12,0.026,0.68,0.03,-3.2,5.0,8.2,0.14,0.032,0.45,0.8,14.0,0.05,1.15,3.8,0.75,4.0
8477,0.8213990798631592,0.7116122571388895,0.8464285714285714,0.8140533212833257,0.6788321167883211,0.9390429747028345,0.8451794510907812,0.2990353697749196,3640,4426,411,waveblock_00375,0.0,1.0,1.0,-4.4,12.0,3.0,5.2,0.12,0.026,0.68,0.03,-2.8,5.0,8.2,0.14,0.032,0.45,0.8,10.0,0.05,1.15,3.8,0.75,4.0
8477,0.8307184145334434,0.7209835788295992,0.8464285714285714,0.8341617713511071,0.6545012165450121,0.9390429747028345,0.8462067384826953,0.32292917166866747,3640,4426,411,waveblock_00376,0.0,1.0,1.0,-4.4,12.0,3.0,5.2,0.12,0.026,0.68,0.03,-2.8,5.0,8.2,0.14,0.032,0.45,0.8,12.0,0.05,1.15,3.8,0.75,4.0
8477,0.8420431756517636,0.7314650784225537,0.8464285714285714,0.8601446000903751,0.6082725060827251,0.9390429747028345,0.8463761671854158,0.35816618911174786,3640,4426,411,waveblock_00377,0.0,1.0,1.0,-4.4,12.0,3.0,5.2,0.12,0.026,0.68,0.03,-2.8,5.0,8.2,0.14,0.032,0.45,0.8,14.0,0.05,1.15,3.8,0.75,4.0
8477,0.8184499233219299,0.7095206905089366,0.8340659340659341,0.8185720741075463,0.6788321167883211,0.9440298507462687,0.8371072088724584,0.2990353697749196,3640,4426,411,waveblock_00378,0.0,1.0,1.0,-4.0,8.0,3.0,5.2,0.12,0.026,0.68,0.03,-3.6,5.0,8.2,0.14,0.032,0.45,0.8,10.0,0.05,1.15,3.8,0.75,4.0
8477,0.8277692579922142,0.7188715232193781,0.8340659340659341,0.8386805241753276,0.6545012165450121,0.9440298507462687,0.8383017163504969,0.32292917166866747,3640,4426,411,waveblock_00379,0.0,1.0,1.0,-4.0,8.0,3.0,5.2,0.12,0.026,0.68,0.03,-3.6,5.0,8.2,0.14,0.032,0.45,0.8,12.0,0.05,1.15,3.8,0.75,4.0
8477,0.8390940191105344,0.7293297946806443,0.8340659340659341,0.8646633529145956,0.6082725060827251,0.9440298507462687,0.8387026079333771,0.35816618911174786,3640,4426,411,waveblock_00380,0.0,1.0,1.0,-4.0,8.0,3.0,5.2,0.12,0.026,0.68,0.03,-3.6,5.0,8.2,0.14,0.032,0.45,0.8,14.0,0.05,1.15,3.8,0.75,4.0
8477,0.820573316031615,0.7110506623826208,0.8403846153846154,0.8174423859014912,0.6788321167883211,0.9429716399506781,0.8413953488372093,0.2990353697749196,3640,4426,411,waveblock_00381,0.0,1.0,1.0,-4.0,8.0,3.0,5.2,0.12,0.026,0.68,0.03,-3.2,5.0,8.2,0.14,0.032,0.45,0.8,10.0,0.05,1.15,3.8,0.75,4.0
8477,0.8298926507018992,0.7204071655075707,0.8403846153846154,0.8375508359692725,0.6545012165450121,0.9429716399506781,0.8425,0.32292917166866747,3640,4426,411,waveblock_00382,0.0,1.0,1.0,-4.0,8.0,3.0,5.2,0.12,0.026,0.68,0.03,-3.2,5.0,8.2,0.14,0.032,0.45,0.8,12.0,0.05,1.15,3.8,0.75,4.0
8477,0.8412174118202194,0.7308713024650215,0.8403846153846154,0.8635336647085404,0.6082725060827251,0.9429716399506781,0.8427783902976846,0.35816618911174786,3640,4426,411,waveblock_00383,0.0,1.0,1.0,-4.0,8.0,3.0,5.2,0.12,0.026,0.68,0.03,-3.2,5.0,8.2,0.14,0.032,0.45,0.8,14.0,0.05,1.15,3.8,0.75,4.0
8477,0.8213990798631592,0.7116122571388895,0.8464285714285714,0.8140533212833257,0.6788321167883211,0.9390429747028345,0.8451794510907812,0.2990353697749196,3640,4426,411,waveblock_00384,0.0,1.0,1.0,-4.0,8.0,3.0,5.2,0.12,0.026,0.68,0.03,-2.8,5.0,8.2,0.14,0.032,0.45,0.8,10.0,0.05,1.15,3.8,0.75,4.0
8477,0.8307184145334434,0.7209835788295992,0.8464285714285714,0.8341617713511071,0.6545012165450121,0.9390429747028345,0.8462067384826953,0.32292917166866747,3640,4426,411,waveblock_00385,0.0,1.0,1.0,-4.0,8.0,3.0,5.2,0.12,0.026,0.68,0.03,-2.8,5.0,8.2,0.14,0.032,0.45,0.8,12.0,0.05,1.15,3.8,0.75,4.0
8477,0.8420431756517636,0.7314650784225537,0.8464285714285714,0.8601446000903751,0.6082725060827251,0.9390429747028345,0.8463761671854158,0.35816618911174786,3640,4426,411,waveblock_00386,0.0,1.0,1.0,-4.0,8.0,3.0,5.2,0.12,0.026,0.68,0.03,-2.8,5.0,8.2,0.14,0.032,0.45,0.8,14.0,0.05,1.15,3.8,0.75,4.0
8477,0.8184499233219299,0.7095206905089366,0.8340659340659341,0.8185720741075463,0.6788321167883211,0.9440298507462687,0.8371072088724584,0.2990353697749196,3640,4426,411,waveblock_00387,0.0,1.0,1.0,-4.0,10.0,3.0,5.2,0.12,0.026,0.68,0.03,-3.6,5.0,8.2,0.14,0.032,0.45,0.8,10.0,0.05,1.15,3.8,0.75,4.0
8477,0.8277692579922142,0.7188715232193781,0.8340659340659341,0.8386805241753276,0.6545012165450121,0.9440298507462687,0.8383017163504969,0.32292917166866747,3640,4426,411,waveblock_00388,0.0,1.0,1.0,-4.0,10.0,3.0,5.2,0.12,0.026,0.68,0.03,-3.6,5.0,8.2,0.14,0.032,0.45,0.8,12.0,0.05,1.15,3.8,0.75,4.0
8477,0.8390940191105344,0.7293297946806443,0.8340659340659341,0.8646633529145956,0.6082725060827251,0.9440298507462687,0.8387026079333771,0.35816618911174786,3640,4426,411,waveblock_00389,0.0,1.0,1.0,-4.0,10.0,3.0,5.2,0.12,0.026,0.68,0.03,-3.6,5.0,8.2,0.14,0.032,0.45,0.8,14.0,0.05,1.15,3.8,0.75,4.0
8477,0.820573316031615,0.7110506623826208,0.8403846153846154,0.8174423859014912,0.6788321167883211,0.9429716399506781,0.8413953488372093,0.2990353697749196,3640,4426,411,waveblock_00390,0.0,1.0,1.0,-4.0,10.0,3.0,5.2,0.12,0.026,0.68,0.03,-3.2,5.0,8.2,0.14,0.032,0.45,0.8,10.0,0.05,1.15,3.8,0.75,4.0
8477,0.8298926507018992,0.7204071655075707,0.8403846153846154,0.8375508359692725,0.6545012165450121,0.9429716399506781,0.8425,0.32292917166866747,3640,4426,411,waveblock_00391,0.0,1.0,1.0,-4.0,10.0,3.0,5.2,0.12,0.026,0.68,0.03,-3.2,5.0,8.2,0.14,0.032,0.45,0.8,12.0,0.05,1.15,3.8,0.75,4.0
8477,0.8412174118202194,0.7308713024650215,0.8403846153846154,0.8635336647085404,0.6082725060827251,0.9429716399506781,0.8427783902976846,0.35816618911174786,3640,4426,411,waveblock_00392,0.0,1.0,1.0,-4.0,10.0,3.0,5.2,0.12,0.026,0.68,0.03,-3.2,5.0,8.2,0.14,0.032,0.45,0.8,14.0,0.05,1.15,3.8,0.75,4.0
8477,0.8213990798631592,0.7116122571388895,0.8464285714285714,0.8140533212833257,0.6788321167883211,0.9390429747028345,0.8451794510907812,0.2990353697749196,3640,4426,411,waveblock_00393,0.0,1.0,1.0,-4.0,10.0,3.0,5.2,0.12,0.026,0.68,0.03,-2.8,5.0,8.2,0.14,0.032,0.45,0.8,10.0,0.05,1.15,3.8,0.75,4.0
8477,0.8307184145334434,0.7209835788295992,0.8464285714285714,0.8341617713511071,0.6545012165450121,0.9390429747028345,0.8462067384826953,0.32292917166866747,3640,4426,411,waveblock_00394,0.0,1.0,1.0,-4.0,10.0,3.0,5.2,0.12,0.026,0.68,0.03,-2.8,5.0,8.2,0.14,0.032,0.45,0.8,12.0,0.05,1.15,3.8,0.75,4.0
8477,0.8420431756517636,0.7314650784225537,0.8464285714285714,0.8601446000903751,0.6082725060827251,0.9390429747028345,0.8463761671854158,0.35816618911174786,3640,4426,411,waveblock_00395,0.0,1.0,1.0,-4.0,10.0,3.0,5.2,0.12,0.026,0.68,0.03,-2.8,5.0,8.2,0.14,0.032,0.45,0.8,14.0,0.05,1.15,3.8,0.75,4.0
8477,0.8184499233219299,0.7095206905089366,0.8340659340659341,0.8185720741075463,0.6788321167883211,0.9440298507462687,0.8371072088724584,0.2990353697749196,3640,4426,411,waveblock_00396,0.0,1.0,1.0,-4.0,12.0,3.0,5.2,0.12,0.026,0.68,0.03,-3.6,5.0,8.2,0.14,0.032,0.45,0.8,10.0,0.05,1.15,3.8,0.75,4.0
8477,0.8277692579922142,0.7188715232193781,0.8340659340659341,0.8386805241753276,0.6545012165450121,0.9440298507462687,0.8383017163504969,0.32292917166866747,3640,4426,411,waveblock_00397,0.0,1.0,1.0,-4.0,12.0,3.0,5.2,0.12,0.026,0.68,0.03,-3.6,5.0,8.2,0.14,0.032,0.45,0.8,12.0,0.05,1.15,3.8,0.75,4.0
8477,0.8390940191105344,0.7293297946806443,0.8340659340659341,0.8646633529145956,0.6082725060827251,0.9440298507462687,0.8387026079333771,0.35816618911174786,3640,4426,411,waveblock_00398,0.0,1.0,1.0,-4.0,12.0,3.0,5.2,0.12,0.026,0.68,0.03,-3.6,5.0,8.2,0.14,0.032,0.45,0.8,14.0,0.05,1.15,3.8,0.75,4.0
8477,0.820573316031615,0.7110506623826208,0.8403846153846154,0.8174423859014912,0.6788321167883211,0.9429716399506781,0.8413953488372093,0.2990353697749196,3640,4426,411,waveblock_00399,0.0,1.0,1.0,-4.0,12.0,3.0,5.2,0.12,0.026,0.68,0.03,-3.2,5.0,8.2,0.14,0.032,0.45,0.8,10.0,0.05,1.15,3.8,0.75,4.0
8477,0.8298926507018992,0.7204071655075707,0.8403846153846154,0.8375508359692725,0.6545012165450121,0.9429716399506781,0.8425,0.32292917166866747,3640,4426,411,waveblock_00400,0.0,1.0,1.0,-4.0,12.0,3.0,5.2,0.12,0.026,0.68,0.03,-3.2,5.0,8.2,0.14,0.032,0.45,0.8,12.0,0.05,1.15,3.8,0.75,4.0
