base_mode,score_col,score_threshold,gate,gate_threshold,changed_to_bad,test_all_n,test_all_acc,test_all_macro_f1,test_all_good_recall,test_all_medium_recall,test_all_bad_recall,test_all_good_precision,test_all_medium_precision,test_all_bad_precision,test_all_good_f1,test_all_medium_f1,test_all_bad_f1,test_all_support_good,test_all_support_medium,test_all_support_bad,gm_only_n,gm_only_acc,gm_only_macro_f1,gm_only_good_recall,gm_only_medium_recall,gm_only_bad_recall,gm_only_good_precision,gm_only_medium_precision,gm_only_bad_precision,gm_only_good_f1,gm_only_medium_f1,gm_only_bad_f1,gm_only_support_good,gm_only_support_medium,gm_only_support_bad,bad_core_n,bad_core_acc,bad_core_macro_f1,bad_core_good_recall,bad_core_medium_recall,bad_core_bad_recall,bad_core_good_precision,bad_core_medium_precision,bad_core_bad_precision,bad_core_good_f1,bad_core_medium_f1,bad_core_bad_f1,bad_core_support_good,bad_core_support_medium,bad_core_support_bad,bad_outlier_n,bad_outlier_acc,bad_outlier_macro_f1,bad_outlier_good_recall,bad_outlier_medium_recall,bad_outlier_bad_recall,bad_outlier_good_precision,bad_outlier_medium_precision,bad_outlier_bad_precision,bad_outlier_good_f1,bad_outlier_medium_f1,bad_outlier_bad_f1,bad_outlier_support_good,bad_outlier_support_medium,bad_outlier_support_bad,drop_bad_outlier_n,drop_bad_outlier_acc,drop_bad_outlier_macro_f1,drop_bad_outlier_good_recall,drop_bad_outlier_medium_recall,drop_bad_outlier_bad_recall,drop_bad_outlier_good_precision,drop_bad_outlier_medium_precision,drop_bad_outlier_bad_precision,drop_bad_outlier_good_f1,drop_bad_outlier_medium_f1,drop_bad_outlier_bad_f1,drop_bad_outlier_support_good,drop_bad_outlier_support_medium,drop_bad_outlier_support_bad,gm_false_bad_rate,bad_caught_rate,balanced_score
simple_pc1_gm_gate_t254,score_dual,0.01,pc3__le,2.1506591515994145,248,8477,0.7635956116550666,0.6272169618013419,0.9038461538461539,0.6787166741979214,0.43552311435523117,0.780360531309298,0.8951132300357568,0.19779005524861878,0.8375763747454175,0.7720380364944744,0.27203647416413373,3640,4426,411,8066,0.7803124225142574,0.5447836498941576,0.9038461538461539,0.6787166741979214,0.0,0.8133498145859085,0.9116843702579667,0.0,0.8562134027325959,0.7781375469498769,0.0,3640,4426,0,119,1.0,0.3333333333333333,0.0,0.0,1.0,0.0,0.0,1.0,0.0,0.0,1.0,0,0,119,292,0.2054794520547945,0.11363636363636363,0.0,0.0,0.2054794520547945,0.0,0.0,1.0,0.0,0.0,0.3409090909090909,0,0,292,8185,0.7835064141722663,0.6270796388291507,0.9038461538461539,0.6787166741979214,1.0,0.8133498145859085,0.9116843702579667,0.1408284023668639,0.8562134027325959,0.7781375469498769,0.24688796680497926,3640,4426,119,0.09000743863129185,0.43552311435523117,1.0968506194876166
simple_pc1_gm_gate_t254,score_all_max,0.01,pc3__le,2.1506591515994145,248,8477,0.7635956116550666,0.6272169618013419,0.9038461538461539,0.6787166741979214,0.43552311435523117,0.780360531309298,0.8951132300357568,0.19779005524861878,0.8375763747454175,0.7720380364944744,0.27203647416413373,3640,4426,411,8066,0.7803124225142574,0.5447836498941576,0.9038461538461539,0.6787166741979214,0.0,0.8133498145859085,0.9116843702579667,0.0,0.8562134027325959,0.7781375469498769,0.0,3640,4426,0,119,1.0,0.3333333333333333,0.0,0.0,1.0,0.0,0.0,1.0,0.0,0.0,1.0,0,0,119,292,0.2054794520547945,0.11363636363636363,0.0,0.0,0.2054794520547945,0.0,0.0,1.0,0.0,0.0,0.3409090909090909,0,0,292,8185,0.7835064141722663,0.6270796388291507,0.9038461538461539,0.6787166741979214,1.0,0.8133498145859085,0.9116843702579667,0.1408284023668639,0.8562134027325959,0.7781375469498769,0.24688796680497926,3640,4426,119,0.09000743863129185,0.43552311435523117,1.0968506194876166
simple_pc1_gm_gate_t254,score_core,0.01,pc3__le,2.1506591515994145,248,8477,0.7635956116550666,0.6272169618013419,0.9038461538461539,0.6787166741979214,0.43552311435523117,0.780360531309298,0.8951132300357568,0.19779005524861878,0.8375763747454175,0.7720380364944744,0.27203647416413373,3640,4426,411,8066,0.7803124225142574,0.5447836498941576,0.9038461538461539,0.6787166741979214,0.0,0.8133498145859085,0.9116843702579667,0.0,0.8562134027325959,0.7781375469498769,0.0,3640,4426,0,119,1.0,0.3333333333333333,0.0,0.0,1.0,0.0,0.0,1.0,0.0,0.0,1.0,0,0,119,292,0.2054794520547945,0.11363636363636363,0.0,0.0,0.2054794520547945,0.0,0.0,1.0,0.0,0.0,0.3409090909090909,0,0,292,8185,0.7835064141722663,0.6270796388291507,0.9038461538461539,0.6787166741979214,1.0,0.8133498145859085,0.9116843702579667,0.1408284023668639,0.8562134027325959,0.7781375469498769,0.24688796680497926,3640,4426,119,0.09000743863129185,0.43552311435523117,1.0968506194876166
simple_pc1_gm_gate_t254,score_outlier,0.01,pc3__le,2.1506591515994145,248,8477,0.7635956116550666,0.6272169618013419,0.9038461538461539,0.6787166741979214,0.43552311435523117,0.780360531309298,0.8951132300357568,0.19779005524861878,0.8375763747454175,0.7720380364944744,0.27203647416413373,3640,4426,411,8066,0.7803124225142574,0.5447836498941576,0.9038461538461539,0.6787166741979214,0.0,0.8133498145859085,0.9116843702579667,0.0,0.8562134027325959,0.7781375469498769,0.0,3640,4426,0,119,1.0,0.3333333333333333,0.0,0.0,1.0,0.0,0.0,1.0,0.0,0.0,1.0,0,0,119,292,0.2054794520547945,0.11363636363636363,0.0,0.0,0.2054794520547945,0.0,0.0,1.0,0.0,0.0,0.3409090909090909,0,0,292,8185,0.7835064141722663,0.6270796388291507,0.9038461538461539,0.6787166741979214,1.0,0.8133498145859085,0.9116843702579667,0.1408284023668639,0.8562134027325959,0.7781375469498769,0.24688796680497926,3640,4426,119,0.09000743863129185,0.43552311435523117,1.0968506194876166
simple_pc1_gm_gate_t254,score_dual,0.01,pc3__le,0.0402656504923967,175,8477,0.7678423970744367,0.6313258876748722,0.9041208791208791,0.6875282422051514,0.4257907542579075,0.7748999293619026,0.8955267804590936,0.21033653846153846,0.8345378470901483,0.7778629856850716,0.2815768302493966,3640,4426,411,8066,0.7852715100421522,0.5458071926648004,0.9041208791208791,0.6875282422051514,0.0,0.8076073619631902,0.9127174565086983,0.0,0.8531432274789371,0.7842783505154639,0.0,3640,4426,0,119,1.0,0.3333333333333333,0.0,0.0,1.0,0.0,0.0,1.0,0.0,0.0,1.0,0,0,119,292,0.1917808219178082,0.10727969348659004,0.0,0.0,0.1917808219178082,0.0,0.0,1.0,0.0,0.0,0.3218390804597701,0,0,292,8185,0.7883934025656689,0.6344477885679661,0.9041208791208791,0.6875282422051514,1.0,0.8076073619631902,0.9127174565086983,0.15335051546391754,0.8531432274789371,0.7842783505154639,0.2659217877094972,3640,4426,119,0.0814530126456732,0.4257907542579075,1.0956362843523755
simple_pc1_gm_gate_t254,score_all_max,0.01,pc3__le,0.0402656504923967,175,8477,0.7678423970744367,0.6313258876748722,0.9041208791208791,0.6875282422051514,0.4257907542579075,0.7748999293619026,0.8955267804590936,0.21033653846153846,0.8345378470901483,0.7778629856850716,0.2815768302493966,3640,4426,411,8066,0.7852715100421522,0.5458071926648004,0.9041208791208791,0.6875282422051514,0.0,0.8076073619631902,0.9127174565086983,0.0,0.8531432274789371,0.7842783505154639,0.0,3640,4426,0,119,1.0,0.3333333333333333,0.0,0.0,1.0,0.0,0.0,1.0,0.0,0.0,1.0,0,0,119,292,0.1917808219178082,0.10727969348659004,0.0,0.0,0.1917808219178082,0.0,0.0,1.0,0.0,0.0,0.3218390804597701,0,0,292,8185,0.7883934025656689,0.6344477885679661,0.9041208791208791,0.6875282422051514,1.0,0.8076073619631902,0.9127174565086983,0.15335051546391754,0.8531432274789371,0.7842783505154639,0.2659217877094972,3640,4426,119,0.0814530126456732,0.4257907542579075,1.0956362843523755
simple_pc1_gm_gate_t254,score_core,0.01,pc3__le,0.0402656504923967,175,8477,0.7678423970744367,0.6313258876748722,0.9041208791208791,0.6875282422051514,0.4257907542579075,0.7748999293619026,0.8955267804590936,0.21033653846153846,0.8345378470901483,0.7778629856850716,0.2815768302493966,3640,4426,411,8066,0.7852715100421522,0.5458071926648004,0.9041208791208791,0.6875282422051514,0.0,0.8076073619631902,0.9127174565086983,0.0,0.8531432274789371,0.7842783505154639,0.0,3640,4426,0,119,1.0,0.3333333333333333,0.0,0.0,1.0,0.0,0.0,1.0,0.0,0.0,1.0,0,0,119,292,0.1917808219178082,0.10727969348659004,0.0,0.0,0.1917808219178082,0.0,0.0,1.0,0.0,0.0,0.3218390804597701,0,0,292,8185,0.7883934025656689,0.6344477885679661,0.9041208791208791,0.6875282422051514,1.0,0.8076073619631902,0.9127174565086983,0.15335051546391754,0.8531432274789371,0.7842783505154639,0.2659217877094972,3640,4426,119,0.0814530126456732,0.4257907542579075,1.0956362843523755
simple_pc1_gm_gate_t254,score_outlier,0.01,pc3__le,0.0402656504923967,175,8477,0.7678423970744367,0.6313258876748722,0.9041208791208791,0.6875282422051514,0.4257907542579075,0.7748999293619026,0.8955267804590936,0.21033653846153846,0.8345378470901483,0.7778629856850716,0.2815768302493966,3640,4426,411,8066,0.7852715100421522,0.5458071926648004,0.9041208791208791,0.6875282422051514,0.0,0.8076073619631902,0.9127174565086983,0.0,0.8531432274789371,0.7842783505154639,0.0,3640,4426,0,119,1.0,0.3333333333333333,0.0,0.0,1.0,0.0,0.0,1.0,0.0,0.0,1.0,0,0,119,292,0.1917808219178082,0.10727969348659004,0.0,0.0,0.1917808219178082,0.0,0.0,1.0,0.0,0.0,0.3218390804597701,0,0,292,8185,0.7883934025656689,0.6344477885679661,0.9041208791208791,0.6875282422051514,1.0,0.8076073619631902,0.9127174565086983,0.15335051546391754,0.8531432274789371,0.7842783505154639,0.2659217877094972,3640,4426,119,0.0814530126456732,0.4257907542579075,1.0956362843523755
simple_pc1_gm_gate_t254,score_dual,0.01,pc1__le,-0.7734152380448813,263,8477,0.7622979827769258,0.6257578626600768,0.9038461538461539,0.6762313601446001,0.43552311435523117,0.7811016144349477,0.8947683109118086,0.19456521739130433,0.8380030565461029,0.7702998327113627,0.26897069872276486,3640,4426,411,8066,0.7789486734440862,0.5443511940936229,0.9038461538461539,0.6762313601446001,0.0,0.8141549121504578,0.9113885505481121,0.0,0.856659289155058,0.7763942931258107,0.0,3640,4426,0,119,1.0,0.3333333333333333,0.0,0.0,1.0,0.0,0.0,1.0,0.0,0.0,1.0,0,0,119,292,0.2054794520547945,0.11363636363636363,0.0,0.0,0.2054794520547945,0.0,0.0,1.0,0.0,0.0,0.3409090909090909,0,0,292,8185,0.7821624923640806,0.6253862638927377,0.9038461538461539,0.6762313601446001,1.0,0.8141549121504578,0.9113885505481121,0.13837209302325582,0.856659289155058,0.7763942931258107,0.24310520939734423,3640,4426,119,0.09186709645425242,0.43552311435523117,1.0955529906094759
simple_pc1_gm_gate_t254,score_all_max,0.01,pc1__le,-0.7734152380448813,263,8477,0.7622979827769258,0.6257578626600768,0.9038461538461539,0.6762313601446001,0.43552311435523117,0.7811016144349477,0.8947683109118086,0.19456521739130433,0.8380030565461029,0.7702998327113627,0.26897069872276486,3640,4426,411,8066,0.7789486734440862,0.5443511940936229,0.9038461538461539,0.6762313601446001,0.0,0.8141549121504578,0.9113885505481121,0.0,0.856659289155058,0.7763942931258107,0.0,3640,4426,0,119,1.0,0.3333333333333333,0.0,0.0,1.0,0.0,0.0,1.0,0.0,0.0,1.0,0,0,119,292,0.2054794520547945,0.11363636363636363,0.0,0.0,0.2054794520547945,0.0,0.0,1.0,0.0,0.0,0.3409090909090909,0,0,292,8185,0.7821624923640806,0.6253862638927377,0.9038461538461539,0.6762313601446001,1.0,0.8141549121504578,0.9113885505481121,0.13837209302325582,0.856659289155058,0.7763942931258107,0.24310520939734423,3640,4426,119,0.09186709645425242,0.43552311435523117,1.0955529906094759
simple_pc1_gm_gate_t254,score_core,0.01,pc1__le,-0.7734152380448813,263,8477,0.7622979827769258,0.6257578626600768,0.9038461538461539,0.6762313601446001,0.43552311435523117,0.7811016144349477,0.8947683109118086,0.19456521739130433,0.8380030565461029,0.7702998327113627,0.26897069872276486,3640,4426,411,8066,0.7789486734440862,0.5443511940936229,0.9038461538461539,0.6762313601446001,0.0,0.8141549121504578,0.9113885505481121,0.0,0.856659289155058,0.7763942931258107,0.0,3640,4426,0,119,1.0,0.3333333333333333,0.0,0.0,1.0,0.0,0.0,1.0,0.0,0.0,1.0,0,0,119,292,0.2054794520547945,0.11363636363636363,0.0,0.0,0.2054794520547945,0.0,0.0,1.0,0.0,0.0,0.3409090909090909,0,0,292,8185,0.7821624923640806,0.6253862638927377,0.9038461538461539,0.6762313601446001,1.0,0.8141549121504578,0.9113885505481121,0.13837209302325582,0.856659289155058,0.7763942931258107,0.24310520939734423,3640,4426,119,0.09186709645425242,0.43552311435523117,1.0955529906094759
simple_pc1_gm_gate_t254,score_outlier,0.01,pc1__le,-0.7734152380448813,263,8477,0.7622979827769258,0.6257578626600768,0.9038461538461539,0.6762313601446001,0.43552311435523117,0.7811016144349477,0.8947683109118086,0.19456521739130433,0.8380030565461029,0.7702998327113627,0.26897069872276486,3640,4426,411,8066,0.7789486734440862,0.5443511940936229,0.9038461538461539,0.6762313601446001,0.0,0.8141549121504578,0.9113885505481121,0.0,0.856659289155058,0.7763942931258107,0.0,3640,4426,0,119,1.0,0.3333333333333333,0.0,0.0,1.0,0.0,0.0,1.0,0.0,0.0,1.0,0,0,119,292,0.2054794520547945,0.11363636363636363,0.0,0.0,0.2054794520547945,0.0,0.0,1.0,0.0,0.0,0.3409090909090909,0,0,292,8185,0.7821624923640806,0.6253862638927377,0.9038461538461539,0.6762313601446001,1.0,0.8141549121504578,0.9113885505481121,0.13837209302325582,0.856659289155058,0.7763942931258107,0.24310520939734423,3640,4426,119,0.09186709645425242,0.43552311435523117,1.0955529906094759
simple_pc1_gm_gate_t254,score_dual,0.01,pc1__le,0.15713262094765446,273,8477,0.7611183201604341,0.6245611266017533,0.9038461538461539,0.6739719837324898,0.43552311435523117,0.7811016144349477,0.8944527736131934,0.1924731182795699,0.8380030565461029,0.7687153717304471,0.2669649515287099,3640,4426,411,8066,0.7777089015621126,0.5438214946534176,0.9038461538461539,0.6739719837324898,0.0,0.8141549121504578,0.9111178985949908,0.0,0.856659289155058,0.7748051948051948,0.0,3640,4426,0,119,1.0,0.3333333333333333,0.0,0.0,1.0,0.0,0.0,1.0,0.0,0.0,1.0,0,0,119,292,0.2054794520547945,0.11363636363636363,0.0,0.0,0.2054794520547945,0.0,0.0,1.0,0.0,0.0,0.3409090909090909,0,0,292,8185,0.78094074526573,0.6240372007538557,0.9038461538461539,0.6739719837324898,1.0,0.8141549121504578,0.9111178985949908,0.1367816091954023,0.856659289155058,0.7748051948051948,0.24064711830131447,3640,4426,119,0.09310686833622614,0.43552311435523117,1.0943733279929841
simple_pc1_gm_gate_t254,score_all_max,0.01,pc1__le,0.15713262094765446,273,8477,0.7611183201604341,0.6245611266017533,0.9038461538461539,0.6739719837324898,0.43552311435523117,0.7811016144349477,0.8944527736131934,0.1924731182795699,0.8380030565461029,0.7687153717304471,0.2669649515287099,3640,4426,411,8066,0.7777089015621126,0.5438214946534176,0.9038461538461539,0.6739719837324898,0.0,0.8141549121504578,0.9111178985949908,0.0,0.856659289155058,0.7748051948051948,0.0,3640,4426,0,119,1.0,0.3333333333333333,0.0,0.0,1.0,0.0,0.0,1.0,0.0,0.0,1.0,0,0,119,292,0.2054794520547945,0.11363636363636363,0.0,0.0,0.2054794520547945,0.0,0.0,1.0,0.0,0.0,0.3409090909090909,0,0,292,8185,0.78094074526573,0.6240372007538557,0.9038461538461539,0.6739719837324898,1.0,0.8141549121504578,0.9111178985949908,0.1367816091954023,0.856659289155058,0.7748051948051948,0.24064711830131447,3640,4426,119,0.09310686833622614,0.43552311435523117,1.0943733279929841
simple_pc1_gm_gate_t254,score_core,0.01,pc1__le,0.15713262094765446,273,8477,0.7611183201604341,0.6245611266017533,0.9038461538461539,0.6739719837324898,0.43552311435523117,0.7811016144349477,0.8944527736131934,0.1924731182795699,0.8380030565461029,0.7687153717304471,0.2669649515287099,3640,4426,411,8066,0.7777089015621126,0.5438214946534176,0.9038461538461539,0.6739719837324898,0.0,0.8141549121504578,0.9111178985949908,0.0,0.856659289155058,0.7748051948051948,0.0,3640,4426,0,119,1.0,0.3333333333333333,0.0,0.0,1.0,0.0,0.0,1.0,0.0,0.0,1.0,0,0,119,292,0.2054794520547945,0.11363636363636363,0.0,0.0,0.2054794520547945,0.0,0.0,1.0,0.0,0.0,0.3409090909090909,0,0,292,8185,0.78094074526573,0.6240372007538557,0.9038461538461539,0.6739719837324898,1.0,0.8141549121504578,0.9111178985949908,0.1367816091954023,0.856659289155058,0.7748051948051948,0.24064711830131447,3640,4426,119,0.09310686833622614,0.43552311435523117,1.0943733279929841
simple_pc1_gm_gate_t254,score_outlier,0.01,pc1__le,0.15713262094765446,273,8477,0.7611183201604341,0.6245611266017533,0.9038461538461539,0.6739719837324898,0.43552311435523117,0.7811016144349477,0.8944527736131934,0.1924731182795699,0.8380030565461029,0.7687153717304471,0.2669649515287099,3640,4426,411,8066,0.7777089015621126,0.5438214946534176,0.9038461538461539,0.6739719837324898,0.0,0.8141549121504578,0.9111178985949908,0.0,0.856659289155058,0.7748051948051948,0.0,3640,4426,0,119,1.0,0.3333333333333333,0.0,0.0,1.0,0.0,0.0,1.0,0.0,0.0,1.0,0,0,119,292,0.2054794520547945,0.11363636363636363,0.0,0.0,0.2054794520547945,0.0,0.0,1.0,0.0,0.0,0.3409090909090909,0,0,292,8185,0.78094074526573,0.6240372007538557,0.9038461538461539,0.6739719837324898,1.0,0.8141549121504578,0.9111178985949908,0.1367816091954023,0.856659289155058,0.7748051948051948,0.24064711830131447,3640,4426,119,0.09310686833622614,0.43552311435523117,1.0943733279929841
simple_pc1_gm_gate_t254,score_dual,0.02,pc3__le,0.0402656504923967,140,8477,0.7692579922142267,0.6328956766889926,0.9076923076923077,0.6877541798463624,0.4209245742092457,0.77196261682243,0.8952941176470588,0.21706398996235884,0.8343434343434344,0.7779197546639407,0.28642384105960267,3640,4426,411,8066,0.7870071906769155,0.5458064660059881,0.9076923076923077,0.6877541798463624,0.0,0.8046760837798344,0.9124700239808153,0.0,0.8530854634650142,0.7843339345529503,0.0,3640,4426,0,119,1.0,0.3333333333333333,0.0,0.0,1.0,0.0,0.0,1.0,0.0,0.0,1.0,0,0,119,292,0.18493150684931506,0.10404624277456648,0.0,0.0,0.18493150684931506,0.0,0.0,1.0,0.0,0.0,0.31213872832369943,0,0,292,8185,0.7901038485033598,0.637840495395006,0.9076923076923077,0.6877541798463624,1.0,0.8046760837798344,0.9124700239808153,0.1601615074024226,0.8530854634650142,0.7843339345529503,0.27610208816705334,3640,4426,119,0.07736176543515993,0.4209245742092457,1.09432131921486
simple_pc1_gm_gate_t254,score_all_max,0.02,pc3__le,0.0402656504923967,140,8477,0.7692579922142267,0.6328956766889926,0.9076923076923077,0.6877541798463624,0.4209245742092457,0.77196261682243,0.8952941176470588,0.21706398996235884,0.8343434343434344,0.7779197546639407,0.28642384105960267,3640,4426,411,8066,0.7870071906769155,0.5458064660059881,0.9076923076923077,0.6877541798463624,0.0,0.8046760837798344,0.9124700239808153,0.0,0.8530854634650142,0.7843339345529503,0.0,3640,4426,0,119,1.0,0.3333333333333333,0.0,0.0,1.0,0.0,0.0,1.0,0.0,0.0,1.0,0,0,119,292,0.18493150684931506,0.10404624277456648,0.0,0.0,0.18493150684931506,0.0,0.0,1.0,0.0,0.0,0.31213872832369943,0,0,292,8185,0.7901038485033598,0.637840495395006,0.9076923076923077,0.6877541798463624,1.0,0.8046760837798344,0.9124700239808153,0.1601615074024226,0.8530854634650142,0.7843339345529503,0.27610208816705334,3640,4426,119,0.07736176543515993,0.4209245742092457,1.09432131921486
simple_pc1_gm_gate_t254,score_core,0.02,pc3__le,0.0402656504923967,140,8477,0.7692579922142267,0.6328956766889926,0.9076923076923077,0.6877541798463624,0.4209245742092457,0.77196261682243,0.8952941176470588,0.21706398996235884,0.8343434343434344,0.7779197546639407,0.28642384105960267,3640,4426,411,8066,0.7870071906769155,0.5458064660059881,0.9076923076923077,0.6877541798463624,0.0,0.8046760837798344,0.9124700239808153,0.0,0.8530854634650142,0.7843339345529503,0.0,3640,4426,0,119,1.0,0.3333333333333333,0.0,0.0,1.0,0.0,0.0,1.0,0.0,0.0,1.0,0,0,119,292,0.18493150684931506,0.10404624277456648,0.0,0.0,0.18493150684931506,0.0,0.0,1.0,0.0,0.0,0.31213872832369943,0,0,292,8185,0.7901038485033598,0.637840495395006,0.9076923076923077,0.6877541798463624,1.0,0.8046760837798344,0.9124700239808153,0.1601615074024226,0.8530854634650142,0.7843339345529503,0.27610208816705334,3640,4426,119,0.07736176543515993,0.4209245742092457,1.09432131921486
simple_pc1_gm_gate_t254,score_outlier,0.02,pc3__le,0.0402656504923967,140,8477,0.7692579922142267,0.6328956766889926,0.9076923076923077,0.6877541798463624,0.4209245742092457,0.77196261682243,0.8952941176470588,0.21706398996235884,0.8343434343434344,0.7779197546639407,0.28642384105960267,3640,4426,411,8066,0.7870071906769155,0.5458064660059881,0.9076923076923077,0.6877541798463624,0.0,0.8046760837798344,0.9124700239808153,0.0,0.8530854634650142,0.7843339345529503,0.0,3640,4426,0,119,1.0,0.3333333333333333,0.0,0.0,1.0,0.0,0.0,1.0,0.0,0.0,1.0,0,0,119,292,0.18493150684931506,0.10404624277456648,0.0,0.0,0.18493150684931506,0.0,0.0,1.0,0.0,0.0,0.31213872832369943,0,0,292,8185,0.7901038485033598,0.637840495395006,0.9076923076923077,0.6877541798463624,1.0,0.8046760837798344,0.9124700239808153,0.1601615074024226,0.8530854634650142,0.7843339345529503,0.27610208816705334,3640,4426,119,0.07736176543515993,0.4209245742092457,1.09432131921486
simple_pc1_gm_gate_t254,score_dual,0.01,pc3__le,3.281193089810729,277,8477,0.7606464551138374,0.6240848345779962,0.9038461538461539,0.6730682331676457,0.43552311435523117,0.7811016144349477,0.8943260282197538,0.19164882226980728,0.8380030565461029,0.7680804434704138,0.2661710037174721,3640,4426,411,8066,0.7772129928093231,0.5436092294411524,0.9038461538461539,0.6730682331676457,0.0,0.8141549121504578,0.9110091743119266,0.0,0.856659289155058,0.7741683991683992,0.0,3640,4426,0,119,1.0,0.3333333333333333,0.0,0.0,1.0,0.0,0.0,1.0,0.0,0.0,1.0,0,0,119,292,0.2054794520547945,0.11363636363636363,0.0,0.0,0.2054794520547945,0.0,0.0,1.0,0.0,0.0,0.3409090909090909,0,0,292,8185,0.7804520464263898,0.6235018108443078,0.9038461538461539,0.6730682331676457,1.0,0.8141549121504578,0.9110091743119266,0.13615560640732266,0.856659289155058,0.7741683991683992,0.23967774420946628,3640,4426,119,0.09360277708901563,0.43552311435523117,1.0939014629463875
simple_pc1_gm_gate_t254,score_all_max,0.01,pc3__le,3.281193089810729,277,8477,0.7606464551138374,0.6240848345779962,0.9038461538461539,0.6730682331676457,0.43552311435523117,0.7811016144349477,0.8943260282197538,0.19164882226980728,0.8380030565461029,0.7680804434704138,0.2661710037174721,3640,4426,411,8066,0.7772129928093231,0.5436092294411524,0.9038461538461539,0.6730682331676457,0.0,0.8141549121504578,0.9110091743119266,0.0,0.856659289155058,0.7741683991683992,0.0,3640,4426,0,119,1.0,0.3333333333333333,0.0,0.0,1.0,0.0,0.0,1.0,0.0,0.0,1.0,0,0,119,292,0.2054794520547945,0.11363636363636363,0.0,0.0,0.2054794520547945,0.0,0.0,1.0,0.0,0.0,0.3409090909090909,0,0,292,8185,0.7804520464263898,0.6235018108443078,0.9038461538461539,0.6730682331676457,1.0,0.8141549121504578,0.9110091743119266,0.13615560640732266,0.856659289155058,0.7741683991683992,0.23967774420946628,3640,4426,119,0.09360277708901563,0.43552311435523117,1.0939014629463875
simple_pc1_gm_gate_t254,score_core,0.01,pc3__le,3.281193089810729,277,8477,0.7606464551138374,0.6240848345779962,0.9038461538461539,0.6730682331676457,0.43552311435523117,0.7811016144349477,0.8943260282197538,0.19164882226980728,0.8380030565461029,0.7680804434704138,0.2661710037174721,3640,4426,411,8066,0.7772129928093231,0.5436092294411524,0.9038461538461539,0.6730682331676457,0.0,0.8141549121504578,0.9110091743119266,0.0,0.856659289155058,0.7741683991683992,0.0,3640,4426,0,119,1.0,0.3333333333333333,0.0,0.0,1.0,0.0,0.0,1.0,0.0,0.0,1.0,0,0,119,292,0.2054794520547945,0.11363636363636363,0.0,0.0,0.2054794520547945,0.0,0.0,1.0,0.0,0.0,0.3409090909090909,0,0,292,8185,0.7804520464263898,0.6235018108443078,0.9038461538461539,0.6730682331676457,1.0,0.8141549121504578,0.9110091743119266,0.13615560640732266,0.856659289155058,0.7741683991683992,0.23967774420946628,3640,4426,119,0.09360277708901563,0.43552311435523117,1.0939014629463875
simple_pc1_gm_gate_t254,score_outlier,0.01,pc3__le,3.281193089810729,277,8477,0.7606464551138374,0.6240848345779962,0.9038461538461539,0.6730682331676457,0.43552311435523117,0.7811016144349477,0.8943260282197538,0.19164882226980728,0.8380030565461029,0.7680804434704138,0.2661710037174721,3640,4426,411,8066,0.7772129928093231,0.5436092294411524,0.9038461538461539,0.6730682331676457,0.0,0.8141549121504578,0.9110091743119266,0.0,0.856659289155058,0.7741683991683992,0.0,3640,4426,0,119,1.0,0.3333333333333333,0.0,0.0,1.0,0.0,0.0,1.0,0.0,0.0,1.0,0,0,119,292,0.2054794520547945,0.11363636363636363,0.0,0.0,0.2054794520547945,0.0,0.0,1.0,0.0,0.0,0.3409090909090909,0,0,292,8185,0.7804520464263898,0.6235018108443078,0.9038461538461539,0.6730682331676457,1.0,0.8141549121504578,0.9110091743119266,0.13615560640732266,0.856659289155058,0.7741683991683992,0.23967774420946628,3640,4426,119,0.09360277708901563,0.43552311435523117,1.0939014629463875
simple_pc1_gm_gate_t254,score_dual,0.02,pc3__le,2.1506591515994145,193,8477,0.76595493688805,0.6291804110553549,0.9076923076923077,0.6809760506100316,0.4257907542579075,0.7759511507750118,0.8946274859008608,0.20588235294117646,0.8366675107622182,0.7733162283515074,0.2775574940523394,3640,4426,411,8066,0.7832878750309943,0.5450072353731338,0.9076923076923077,0.6809760506100316,0.0,0.808812729498164,0.91167574107683,0.0,0.8554045307443365,0.7796171753750647,0.0,3640,4426,0,119,1.0,0.3333333333333333,0.0,0.0,1.0,0.0,0.0,1.0,0.0,0.0,1.0,0,0,119,292,0.1917808219178082,0.10727969348659004,0.0,0.0,0.1917808219178082,0.0,0.0,1.0,0.0,0.0,0.3218390804597701,0,0,292,8185,0.7864386072083078,0.6319002620251966,0.9076923076923077,0.6809760506100316,1.0,0.808812729498164,0.91167574107683,0.14987405541561713,0.8554045307443365,0.7796171753750647,0.2606790799561884,3640,4426,119,0.08368460203322589,0.4257907542579075,1.0937488241659887
simple_pc1_gm_gate_t254,score_all_max,0.02,pc3__le,2.1506591515994145,193,8477,0.76595493688805,0.6291804110553549,0.9076923076923077,0.6809760506100316,0.4257907542579075,0.7759511507750118,0.8946274859008608,0.20588235294117646,0.8366675107622182,0.7733162283515074,0.2775574940523394,3640,4426,411,8066,0.7832878750309943,0.5450072353731338,0.9076923076923077,0.6809760506100316,0.0,0.808812729498164,0.91167574107683,0.0,0.8554045307443365,0.7796171753750647,0.0,3640,4426,0,119,1.0,0.3333333333333333,0.0,0.0,1.0,0.0,0.0,1.0,0.0,0.0,1.0,0,0,119,292,0.1917808219178082,0.10727969348659004,0.0,0.0,0.1917808219178082,0.0,0.0,1.0,0.0,0.0,0.3218390804597701,0,0,292,8185,0.7864386072083078,0.6319002620251966,0.9076923076923077,0.6809760506100316,1.0,0.808812729498164,0.91167574107683,0.14987405541561713,0.8554045307443365,0.7796171753750647,0.2606790799561884,3640,4426,119,0.08368460203322589,0.4257907542579075,1.0937488241659887
simple_pc1_gm_gate_t254,score_core,0.02,pc3__le,2.1506591515994145,193,8477,0.76595493688805,0.6291804110553549,0.9076923076923077,0.6809760506100316,0.4257907542579075,0.7759511507750118,0.8946274859008608,0.20588235294117646,0.8366675107622182,0.7733162283515074,0.2775574940523394,3640,4426,411,8066,0.7832878750309943,0.5450072353731338,0.9076923076923077,0.6809760506100316,0.0,0.808812729498164,0.91167574107683,0.0,0.8554045307443365,0.7796171753750647,0.0,3640,4426,0,119,1.0,0.3333333333333333,0.0,0.0,1.0,0.0,0.0,1.0,0.0,0.0,1.0,0,0,119,292,0.1917808219178082,0.10727969348659004,0.0,0.0,0.1917808219178082,0.0,0.0,1.0,0.0,0.0,0.3218390804597701,0,0,292,8185,0.7864386072083078,0.6319002620251966,0.9076923076923077,0.6809760506100316,1.0,0.808812729498164,0.91167574107683,0.14987405541561713,0.8554045307443365,0.7796171753750647,0.2606790799561884,3640,4426,119,0.08368460203322589,0.4257907542579075,1.0937488241659887
simple_pc1_gm_gate_t254,score_outlier,0.02,pc3__le,2.1506591515994145,193,8477,0.76595493688805,0.6291804110553549,0.9076923076923077,0.6809760506100316,0.4257907542579075,0.7759511507750118,0.8946274859008608,0.20588235294117646,0.8366675107622182,0.7733162283515074,0.2775574940523394,3640,4426,411,8066,0.7832878750309943,0.5450072353731338,0.9076923076923077,0.6809760506100316,0.0,0.808812729498164,0.91167574107683,0.0,0.8554045307443365,0.7796171753750647,0.0,3640,4426,0,119,1.0,0.3333333333333333,0.0,0.0,1.0,0.0,0.0,1.0,0.0,0.0,1.0,0,0,119,292,0.1917808219178082,0.10727969348659004,0.0,0.0,0.1917808219178082,0.0,0.0,1.0,0.0,0.0,0.3218390804597701,0,0,292,8185,0.7864386072083078,0.6319002620251966,0.9076923076923077,0.6809760506100316,1.0,0.808812729498164,0.91167574107683,0.14987405541561713,0.8554045307443365,0.7796171753750647,0.2606790799561884,3640,4426,119,0.08368460203322589,0.4257907542579075,1.0937488241659887
simple_pc1_gm_gate_t254,score_dual,0.03,pc3__le,2.1506591515994145,168,8477,0.7671345995045417,0.6305819528413356,0.9087912087912088,0.6825576140985088,0.4233576642335766,0.7736202057998129,0.894845971563981,0.2109090909090909,0.8357756442647802,0.7744168162009741,0.2815533980582524,3640,4426,411,8066,0.7846516241011654,0.5450935229083856,0.9087912087912088,0.6825576140985088,0.0,0.8064358849341785,0.9118623603984304,0.0,0.8545595453371222,0.7807210233880346,0.0,3640,4426,0,119,1.0,0.3333333333333333,0.0,0.0,1.0,0.0,0.0,1.0,0.0,0.0,1.0,0,0,119,292,0.18835616438356165,0.10566762728146013,0.0,0.0,0.18835616438356165,0.0,0.0,1.0,0.0,0.0,0.3170028818443804,0,0,292,8185,0.7877825290164936,0.6343323680527425,0.9087912087912088,0.6825576140985088,1.0,0.8064358849341785,0.9118623603984304,0.15454545454545454,0.8545595453371222,0.7807210233880346,0.2677165354330709,3640,4426,119,0.08070914951648897,0.4233576642335766,1.0935632066438277
simple_pc1_gm_gate_t254,score_all_max,0.03,pc3__le,2.1506591515994145,168,8477,0.7671345995045417,0.6305819528413356,0.9087912087912088,0.6825576140985088,0.4233576642335766,0.7736202057998129,0.894845971563981,0.2109090909090909,0.8357756442647802,0.7744168162009741,0.2815533980582524,3640,4426,411,8066,0.7846516241011654,0.5450935229083856,0.9087912087912088,0.6825576140985088,0.0,0.8064358849341785,0.9118623603984304,0.0,0.8545595453371222,0.7807210233880346,0.0,3640,4426,0,119,1.0,0.3333333333333333,0.0,0.0,1.0,0.0,0.0,1.0,0.0,0.0,1.0,0,0,119,292,0.18835616438356165,0.10566762728146013,0.0,0.0,0.18835616438356165,0.0,0.0,1.0,0.0,0.0,0.3170028818443804,0,0,292,8185,0.7877825290164936,0.6343323680527425,0.9087912087912088,0.6825576140985088,1.0,0.8064358849341785,0.9118623603984304,0.15454545454545454,0.8545595453371222,0.7807210233880346,0.2677165354330709,3640,4426,119,0.08070914951648897,0.4233576642335766,1.0935632066438277
simple_pc1_gm_gate_t254,score_core,0.03,pc3__le,2.1506591515994145,168,8477,0.7671345995045417,0.6305819528413356,0.9087912087912088,0.6825576140985088,0.4233576642335766,0.7736202057998129,0.894845971563981,0.2109090909090909,0.8357756442647802,0.7744168162009741,0.2815533980582524,3640,4426,411,8066,0.7846516241011654,0.5450935229083856,0.9087912087912088,0.6825576140985088,0.0,0.8064358849341785,0.9118623603984304,0.0,0.8545595453371222,0.7807210233880346,0.0,3640,4426,0,119,1.0,0.3333333333333333,0.0,0.0,1.0,0.0,0.0,1.0,0.0,0.0,1.0,0,0,119,292,0.18835616438356165,0.10566762728146013,0.0,0.0,0.18835616438356165,0.0,0.0,1.0,0.0,0.0,0.3170028818443804,0,0,292,8185,0.7877825290164936,0.6343323680527425,0.9087912087912088,0.6825576140985088,1.0,0.8064358849341785,0.9118623603984304,0.15454545454545454,0.8545595453371222,0.7807210233880346,0.2677165354330709,3640,4426,119,0.08070914951648897,0.4233576642335766,1.0935632066438277
simple_pc1_gm_gate_t254,score_outlier,0.03,pc3__le,2.1506591515994145,168,8477,0.7671345995045417,0.6305819528413356,0.9087912087912088,0.6825576140985088,0.4233576642335766,0.7736202057998129,0.894845971563981,0.2109090909090909,0.8357756442647802,0.7744168162009741,0.2815533980582524,3640,4426,411,8066,0.7846516241011654,0.5450935229083856,0.9087912087912088,0.6825576140985088,0.0,0.8064358849341785,0.9118623603984304,0.0,0.8545595453371222,0.7807210233880346,0.0,3640,4426,0,119,1.0,0.3333333333333333,0.0,0.0,1.0,0.0,0.0,1.0,0.0,0.0,1.0,0,0,119,292,0.18835616438356165,0.10566762728146013,0.0,0.0,0.18835616438356165,0.0,0.0,1.0,0.0,0.0,0.3170028818443804,0,0,292,8185,0.7877825290164936,0.6343323680527425,0.9087912087912088,0.6825576140985088,1.0,0.8064358849341785,0.9118623603984304,0.15454545454545454,0.8545595453371222,0.7807210233880346,0.2677165354330709,3640,4426,119,0.08070914951648897,0.4233576642335766,1.0935632066438277
simple_pc1_gm_gate_t254,score_dual,0.01,none,,280,8477,0.7602925563288899,0.6237285029818385,0.9038461538461539,0.6723904202440126,0.43552311435523117,0.7811016144349477,0.8942307692307693,0.1910352187833511,0.8380030565461029,0.7676038173845757,0.2655786350148368,3640,4426,411,8066,0.776841061244731,0.5434498856739833,0.9038461538461539,0.6723904202440126,0.0,0.8141549121504578,0.9109274563820018,0.0,0.856659289155058,0.7736903678668919,0.0,3640,4426,0,119,1.0,0.3333333333333333,0.0,0.0,1.0,0.0,0.0,1.0,0.0,0.0,1.0,0,0,119,292,0.2054794520547945,0.11363636363636363,0.0,0.0,0.2054794520547945,0.0,0.0,1.0,0.0,0.0,0.3409090909090909,0,0,292,8185,0.7800855222968845,0.6231018267717076,0.9038461538461539,0.6723904202440126,1.0,0.8141549121504578,0.9109274563820018,0.13568985176738882,0.856659289155058,0.7736903678668919,0.2389558232931727,3640,4426,119,0.09397470865360774,0.43552311435523117,1.09354756416144
simple_pc1_gm_gate_t254,score_dual,0.01,pc2__ge,-1.0634046292314407,280,8477,0.7602925563288899,0.6237285029818385,0.9038461538461539,0.6723904202440126,0.43552311435523117,0.7811016144349477,0.8942307692307693,0.1910352187833511,0.8380030565461029,0.7676038173845757,0.2655786350148368,3640,4426,411,8066,0.776841061244731,0.5434498856739833,0.9038461538461539,0.6723904202440126,0.0,0.8141549121504578,0.9109274563820018,0.0,0.856659289155058,0.7736903678668919,0.0,3640,4426,0,119,1.0,0.3333333333333333,0.0,0.0,1.0,0.0,0.0,1.0,0.0,0.0,1.0,0,0,119,292,0.2054794520547945,0.11363636363636363,0.0,0.0,0.2054794520547945,0.0,0.0,1.0,0.0,0.0,0.3409090909090909,0,0,292,8185,0.7800855222968845,0.6231018267717076,0.9038461538461539,0.6723904202440126,1.0,0.8141549121504578,0.9109274563820018,0.13568985176738882,0.856659289155058,0.7736903678668919,0.2389558232931727,3640,4426,119,0.09397470865360774,0.43552311435523117,1.09354756416144
simple_pc1_gm_gate_t254,score_dual,0.01,pc2__ge,1.9185090159687288,280,8477,0.7602925563288899,0.6237285029818385,0.9038461538461539,0.6723904202440126,0.43552311435523117,0.7811016144349477,0.8942307692307693,0.1910352187833511,0.8380030565461029,0.7676038173845757,0.2655786350148368,3640,4426,411,8066,0.776841061244731,0.5434498856739833,0.9038461538461539,0.6723904202440126,0.0,0.8141549121504578,0.9109274563820018,0.0,0.856659289155058,0.7736903678668919,0.0,3640,4426,0,119,1.0,0.3333333333333333,0.0,0.0,1.0,0.0,0.0,1.0,0.0,0.0,1.0,0,0,119,292,0.2054794520547945,0.11363636363636363,0.0,0.0,0.2054794520547945,0.0,0.0,1.0,0.0,0.0,0.3409090909090909,0,0,292,8185,0.7800855222968845,0.6231018267717076,0.9038461538461539,0.6723904202440126,1.0,0.8141549121504578,0.9109274563820018,0.13568985176738882,0.856659289155058,0.7736903678668919,0.2389558232931727,3640,4426,119,0.09397470865360774,0.43552311435523117,1.09354756416144
simple_pc1_gm_gate_t254,score_dual,0.01,qrs_visibility__le,0.2800807397384144,280,8477,0.7602925563288899,0.6237285029818385,0.9038461538461539,0.6723904202440126,0.43552311435523117,0.7811016144349477,0.8942307692307693,0.1910352187833511,0.8380030565461029,0.7676038173845757,0.2655786350148368,3640,4426,411,8066,0.776841061244731,0.5434498856739833,0.9038461538461539,0.6723904202440126,0.0,0.8141549121504578,0.9109274563820018,0.0,0.856659289155058,0.7736903678668919,0.0,3640,4426,0,119,1.0,0.3333333333333333,0.0,0.0,1.0,0.0,0.0,1.0,0.0,0.0,1.0,0,0,119,292,0.2054794520547945,0.11363636363636363,0.0,0.0,0.2054794520547945,0.0,0.0,1.0,0.0,0.0,0.3409090909090909,0,0,292,8185,0.7800855222968845,0.6231018267717076,0.9038461538461539,0.6723904202440126,1.0,0.8141549121504578,0.9109274563820018,0.13568985176738882,0.856659289155058,0.7736903678668919,0.2389558232931727,3640,4426,119,0.09397470865360774,0.43552311435523117,1.09354756416144
simple_pc1_gm_gate_t254,score_dual,0.01,qrs_visibility__le,0.3732307518330272,280,8477,0.7602925563288899,0.6237285029818385,0.9038461538461539,0.6723904202440126,0.43552311435523117,0.7811016144349477,0.8942307692307693,0.1910352187833511,0.8380030565461029,0.7676038173845757,0.2655786350148368,3640,4426,411,8066,0.776841061244731,0.5434498856739833,0.9038461538461539,0.6723904202440126,0.0,0.8141549121504578,0.9109274563820018,0.0,0.856659289155058,0.7736903678668919,0.0,3640,4426,0,119,1.0,0.3333333333333333,0.0,0.0,1.0,0.0,0.0,1.0,0.0,0.0,1.0,0,0,119,292,0.2054794520547945,0.11363636363636363,0.0,0.0,0.2054794520547945,0.0,0.0,1.0,0.0,0.0,0.3409090909090909,0,0,292,8185,0.7800855222968845,0.6231018267717076,0.9038461538461539,0.6723904202440126,1.0,0.8141549121504578,0.9109274563820018,0.13568985176738882,0.856659289155058,0.7736903678668919,0.2389558232931727,3640,4426,119,0.09397470865360774,0.43552311435523117,1.09354756416144
simple_pc1_gm_gate_t254,score_all_max,0.01,none,,280,8477,0.7602925563288899,0.6237285029818385,0.9038461538461539,0.6723904202440126,0.43552311435523117,0.7811016144349477,0.8942307692307693,0.1910352187833511,0.8380030565461029,0.7676038173845757,0.2655786350148368,3640,4426,411,8066,0.776841061244731,0.5434498856739833,0.9038461538461539,0.6723904202440126,0.0,0.8141549121504578,0.9109274563820018,0.0,0.856659289155058,0.7736903678668919,0.0,3640,4426,0,119,1.0,0.3333333333333333,0.0,0.0,1.0,0.0,0.0,1.0,0.0,0.0,1.0,0,0,119,292,0.2054794520547945,0.11363636363636363,0.0,0.0,0.2054794520547945,0.0,0.0,1.0,0.0,0.0,0.3409090909090909,0,0,292,8185,0.7800855222968845,0.6231018267717076,0.9038461538461539,0.6723904202440126,1.0,0.8141549121504578,0.9109274563820018,0.13568985176738882,0.856659289155058,0.7736903678668919,0.2389558232931727,3640,4426,119,0.09397470865360774,0.43552311435523117,1.09354756416144
simple_pc1_gm_gate_t254,score_all_max,0.01,pc2__ge,-1.0634046292314407,280,8477,0.7602925563288899,0.6237285029818385,0.9038461538461539,0.6723904202440126,0.43552311435523117,0.7811016144349477,0.8942307692307693,0.1910352187833511,0.8380030565461029,0.7676038173845757,0.2655786350148368,3640,4426,411,8066,0.776841061244731,0.5434498856739833,0.9038461538461539,0.6723904202440126,0.0,0.8141549121504578,0.9109274563820018,0.0,0.856659289155058,0.7736903678668919,0.0,3640,4426,0,119,1.0,0.3333333333333333,0.0,0.0,1.0,0.0,0.0,1.0,0.0,0.0,1.0,0,0,119,292,0.2054794520547945,0.11363636363636363,0.0,0.0,0.2054794520547945,0.0,0.0,1.0,0.0,0.0,0.3409090909090909,0,0,292,8185,0.7800855222968845,0.6231018267717076,0.9038461538461539,0.6723904202440126,1.0,0.8141549121504578,0.9109274563820018,0.13568985176738882,0.856659289155058,0.7736903678668919,0.2389558232931727,3640,4426,119,0.09397470865360774,0.43552311435523117,1.09354756416144
simple_pc1_gm_gate_t254,score_all_max,0.01,pc2__ge,1.9185090159687288,280,8477,0.7602925563288899,0.6237285029818385,0.9038461538461539,0.6723904202440126,0.43552311435523117,0.7811016144349477,0.8942307692307693,0.1910352187833511,0.8380030565461029,0.7676038173845757,0.2655786350148368,3640,4426,411,8066,0.776841061244731,0.5434498856739833,0.9038461538461539,0.6723904202440126,0.0,0.8141549121504578,0.9109274563820018,0.0,0.856659289155058,0.7736903678668919,0.0,3640,4426,0,119,1.0,0.3333333333333333,0.0,0.0,1.0,0.0,0.0,1.0,0.0,0.0,1.0,0,0,119,292,0.2054794520547945,0.11363636363636363,0.0,0.0,0.2054794520547945,0.0,0.0,1.0,0.0,0.0,0.3409090909090909,0,0,292,8185,0.7800855222968845,0.6231018267717076,0.9038461538461539,0.6723904202440126,1.0,0.8141549121504578,0.9109274563820018,0.13568985176738882,0.856659289155058,0.7736903678668919,0.2389558232931727,3640,4426,119,0.09397470865360774,0.43552311435523117,1.09354756416144
simple_pc1_gm_gate_t254,score_all_max,0.01,qrs_visibility__le,0.2800807397384144,280,8477,0.7602925563288899,0.6237285029818385,0.9038461538461539,0.6723904202440126,0.43552311435523117,0.7811016144349477,0.8942307692307693,0.1910352187833511,0.8380030565461029,0.7676038173845757,0.2655786350148368,3640,4426,411,8066,0.776841061244731,0.5434498856739833,0.9038461538461539,0.6723904202440126,0.0,0.8141549121504578,0.9109274563820018,0.0,0.856659289155058,0.7736903678668919,0.0,3640,4426,0,119,1.0,0.3333333333333333,0.0,0.0,1.0,0.0,0.0,1.0,0.0,0.0,1.0,0,0,119,292,0.2054794520547945,0.11363636363636363,0.0,0.0,0.2054794520547945,0.0,0.0,1.0,0.0,0.0,0.3409090909090909,0,0,292,8185,0.7800855222968845,0.6231018267717076,0.9038461538461539,0.6723904202440126,1.0,0.8141549121504578,0.9109274563820018,0.13568985176738882,0.856659289155058,0.7736903678668919,0.2389558232931727,3640,4426,119,0.09397470865360774,0.43552311435523117,1.09354756416144
simple_pc1_gm_gate_t254,score_all_max,0.01,qrs_visibility__le,0.3732307518330272,280,8477,0.7602925563288899,0.6237285029818385,0.9038461538461539,0.6723904202440126,0.43552311435523117,0.7811016144349477,0.8942307692307693,0.1910352187833511,0.8380030565461029,0.7676038173845757,0.2655786350148368,3640,4426,411,8066,0.776841061244731,0.5434498856739833,0.9038461538461539,0.6723904202440126,0.0,0.8141549121504578,0.9109274563820018,0.0,0.856659289155058,0.7736903678668919,0.0,3640,4426,0,119,1.0,0.3333333333333333,0.0,0.0,1.0,0.0,0.0,1.0,0.0,0.0,1.0,0,0,119,292,0.2054794520547945,0.11363636363636363,0.0,0.0,0.2054794520547945,0.0,0.0,1.0,0.0,0.0,0.3409090909090909,0,0,292,8185,0.7800855222968845,0.6231018267717076,0.9038461538461539,0.6723904202440126,1.0,0.8141549121504578,0.9109274563820018,0.13568985176738882,0.856659289155058,0.7736903678668919,0.2389558232931727,3640,4426,119,0.09397470865360774,0.43552311435523117,1.09354756416144
simple_pc1_gm_gate_t254,score_core,0.01,none,,280,8477,0.7602925563288899,0.6237285029818385,0.9038461538461539,0.6723904202440126,0.43552311435523117,0.7811016144349477,0.8942307692307693,0.1910352187833511,0.8380030565461029,0.7676038173845757,0.2655786350148368,3640,4426,411,8066,0.776841061244731,0.5434498856739833,0.9038461538461539,0.6723904202440126,0.0,0.8141549121504578,0.9109274563820018,0.0,0.856659289155058,0.7736903678668919,0.0,3640,4426,0,119,1.0,0.3333333333333333,0.0,0.0,1.0,0.0,0.0,1.0,0.0,0.0,1.0,0,0,119,292,0.2054794520547945,0.11363636363636363,0.0,0.0,0.2054794520547945,0.0,0.0,1.0,0.0,0.0,0.3409090909090909,0,0,292,8185,0.7800855222968845,0.6231018267717076,0.9038461538461539,0.6723904202440126,1.0,0.8141549121504578,0.9109274563820018,0.13568985176738882,0.856659289155058,0.7736903678668919,0.2389558232931727,3640,4426,119,0.09397470865360774,0.43552311435523117,1.09354756416144
simple_pc1_gm_gate_t254,score_core,0.01,pc2__ge,-1.0634046292314407,280,8477,0.7602925563288899,0.6237285029818385,0.9038461538461539,0.6723904202440126,0.43552311435523117,0.7811016144349477,0.8942307692307693,0.1910352187833511,0.8380030565461029,0.7676038173845757,0.2655786350148368,3640,4426,411,8066,0.776841061244731,0.5434498856739833,0.9038461538461539,0.6723904202440126,0.0,0.8141549121504578,0.9109274563820018,0.0,0.856659289155058,0.7736903678668919,0.0,3640,4426,0,119,1.0,0.3333333333333333,0.0,0.0,1.0,0.0,0.0,1.0,0.0,0.0,1.0,0,0,119,292,0.2054794520547945,0.11363636363636363,0.0,0.0,0.2054794520547945,0.0,0.0,1.0,0.0,0.0,0.3409090909090909,0,0,292,8185,0.7800855222968845,0.6231018267717076,0.9038461538461539,0.6723904202440126,1.0,0.8141549121504578,0.9109274563820018,0.13568985176738882,0.856659289155058,0.7736903678668919,0.2389558232931727,3640,4426,119,0.09397470865360774,0.43552311435523117,1.09354756416144
simple_pc1_gm_gate_t254,score_core,0.01,pc2__ge,1.9185090159687288,280,8477,0.7602925563288899,0.6237285029818385,0.9038461538461539,0.6723904202440126,0.43552311435523117,0.7811016144349477,0.8942307692307693,0.1910352187833511,0.8380030565461029,0.7676038173845757,0.2655786350148368,3640,4426,411,8066,0.776841061244731,0.5434498856739833,0.9038461538461539,0.6723904202440126,0.0,0.8141549121504578,0.9109274563820018,0.0,0.856659289155058,0.7736903678668919,0.0,3640,4426,0,119,1.0,0.3333333333333333,0.0,0.0,1.0,0.0,0.0,1.0,0.0,0.0,1.0,0,0,119,292,0.2054794520547945,0.11363636363636363,0.0,0.0,0.2054794520547945,0.0,0.0,1.0,0.0,0.0,0.3409090909090909,0,0,292,8185,0.7800855222968845,0.6231018267717076,0.9038461538461539,0.6723904202440126,1.0,0.8141549121504578,0.9109274563820018,0.13568985176738882,0.856659289155058,0.7736903678668919,0.2389558232931727,3640,4426,119,0.09397470865360774,0.43552311435523117,1.09354756416144
simple_pc1_gm_gate_t254,score_core,0.01,qrs_visibility__le,0.2800807397384144,280,8477,0.7602925563288899,0.6237285029818385,0.9038461538461539,0.6723904202440126,0.43552311435523117,0.7811016144349477,0.8942307692307693,0.1910352187833511,0.8380030565461029,0.7676038173845757,0.2655786350148368,3640,4426,411,8066,0.776841061244731,0.5434498856739833,0.9038461538461539,0.6723904202440126,0.0,0.8141549121504578,0.9109274563820018,0.0,0.856659289155058,0.7736903678668919,0.0,3640,4426,0,119,1.0,0.3333333333333333,0.0,0.0,1.0,0.0,0.0,1.0,0.0,0.0,1.0,0,0,119,292,0.2054794520547945,0.11363636363636363,0.0,0.0,0.2054794520547945,0.0,0.0,1.0,0.0,0.0,0.3409090909090909,0,0,292,8185,0.7800855222968845,0.6231018267717076,0.9038461538461539,0.6723904202440126,1.0,0.8141549121504578,0.9109274563820018,0.13568985176738882,0.856659289155058,0.7736903678668919,0.2389558232931727,3640,4426,119,0.09397470865360774,0.43552311435523117,1.09354756416144
simple_pc1_gm_gate_t254,score_core,0.01,qrs_visibility__le,0.3732307518330272,280,8477,0.7602925563288899,0.6237285029818385,0.9038461538461539,0.6723904202440126,0.43552311435523117,0.7811016144349477,0.8942307692307693,0.1910352187833511,0.8380030565461029,0.7676038173845757,0.2655786350148368,3640,4426,411,8066,0.776841061244731,0.5434498856739833,0.9038461538461539,0.6723904202440126,0.0,0.8141549121504578,0.9109274563820018,0.0,0.856659289155058,0.7736903678668919,0.0,3640,4426,0,119,1.0,0.3333333333333333,0.0,0.0,1.0,0.0,0.0,1.0,0.0,0.0,1.0,0,0,119,292,0.2054794520547945,0.11363636363636363,0.0,0.0,0.2054794520547945,0.0,0.0,1.0,0.0,0.0,0.3409090909090909,0,0,292,8185,0.7800855222968845,0.6231018267717076,0.9038461538461539,0.6723904202440126,1.0,0.8141549121504578,0.9109274563820018,0.13568985176738882,0.856659289155058,0.7736903678668919,0.2389558232931727,3640,4426,119,0.09397470865360774,0.43552311435523117,1.09354756416144
simple_pc1_gm_gate_t254,score_outlier,0.01,none,,280,8477,0.7602925563288899,0.6237285029818385,0.9038461538461539,0.6723904202440126,0.43552311435523117,0.7811016144349477,0.8942307692307693,0.1910352187833511,0.8380030565461029,0.7676038173845757,0.2655786350148368,3640,4426,411,8066,0.776841061244731,0.5434498856739833,0.9038461538461539,0.6723904202440126,0.0,0.8141549121504578,0.9109274563820018,0.0,0.856659289155058,0.7736903678668919,0.0,3640,4426,0,119,1.0,0.3333333333333333,0.0,0.0,1.0,0.0,0.0,1.0,0.0,0.0,1.0,0,0,119,292,0.2054794520547945,0.11363636363636363,0.0,0.0,0.2054794520547945,0.0,0.0,1.0,0.0,0.0,0.3409090909090909,0,0,292,8185,0.7800855222968845,0.6231018267717076,0.9038461538461539,0.6723904202440126,1.0,0.8141549121504578,0.9109274563820018,0.13568985176738882,0.856659289155058,0.7736903678668919,0.2389558232931727,3640,4426,119,0.09397470865360774,0.43552311435523117,1.09354756416144
simple_pc1_gm_gate_t254,score_outlier,0.01,pc2__ge,-1.0634046292314407,280,8477,0.7602925563288899,0.6237285029818385,0.9038461538461539,0.6723904202440126,0.43552311435523117,0.7811016144349477,0.8942307692307693,0.1910352187833511,0.8380030565461029,0.7676038173845757,0.2655786350148368,3640,4426,411,8066,0.776841061244731,0.5434498856739833,0.9038461538461539,0.6723904202440126,0.0,0.8141549121504578,0.9109274563820018,0.0,0.856659289155058,0.7736903678668919,0.0,3640,4426,0,119,1.0,0.3333333333333333,0.0,0.0,1.0,0.0,0.0,1.0,0.0,0.0,1.0,0,0,119,292,0.2054794520547945,0.11363636363636363,0.0,0.0,0.2054794520547945,0.0,0.0,1.0,0.0,0.0,0.3409090909090909,0,0,292,8185,0.7800855222968845,0.6231018267717076,0.9038461538461539,0.6723904202440126,1.0,0.8141549121504578,0.9109274563820018,0.13568985176738882,0.856659289155058,0.7736903678668919,0.2389558232931727,3640,4426,119,0.09397470865360774,0.43552311435523117,1.09354756416144
simple_pc1_gm_gate_t254,score_outlier,0.01,pc2__ge,1.9185090159687288,280,8477,0.7602925563288899,0.6237285029818385,0.9038461538461539,0.6723904202440126,0.43552311435523117,0.7811016144349477,0.8942307692307693,0.1910352187833511,0.8380030565461029,0.7676038173845757,0.2655786350148368,3640,4426,411,8066,0.776841061244731,0.5434498856739833,0.9038461538461539,0.6723904202440126,0.0,0.8141549121504578,0.9109274563820018,0.0,0.856659289155058,0.7736903678668919,0.0,3640,4426,0,119,1.0,0.3333333333333333,0.0,0.0,1.0,0.0,0.0,1.0,0.0,0.0,1.0,0,0,119,292,0.2054794520547945,0.11363636363636363,0.0,0.0,0.2054794520547945,0.0,0.0,1.0,0.0,0.0,0.3409090909090909,0,0,292,8185,0.7800855222968845,0.6231018267717076,0.9038461538461539,0.6723904202440126,1.0,0.8141549121504578,0.9109274563820018,0.13568985176738882,0.856659289155058,0.7736903678668919,0.2389558232931727,3640,4426,119,0.09397470865360774,0.43552311435523117,1.09354756416144
simple_pc1_gm_gate_t254,score_outlier,0.01,qrs_visibility__le,0.2800807397384144,280,8477,0.7602925563288899,0.6237285029818385,0.9038461538461539,0.6723904202440126,0.43552311435523117,0.7811016144349477,0.8942307692307693,0.1910352187833511,0.8380030565461029,0.7676038173845757,0.2655786350148368,3640,4426,411,8066,0.776841061244731,0.5434498856739833,0.9038461538461539,0.6723904202440126,0.0,0.8141549121504578,0.9109274563820018,0.0,0.856659289155058,0.7736903678668919,0.0,3640,4426,0,119,1.0,0.3333333333333333,0.0,0.0,1.0,0.0,0.0,1.0,0.0,0.0,1.0,0,0,119,292,0.2054794520547945,0.11363636363636363,0.0,0.0,0.2054794520547945,0.0,0.0,1.0,0.0,0.0,0.3409090909090909,0,0,292,8185,0.7800855222968845,0.6231018267717076,0.9038461538461539,0.6723904202440126,1.0,0.8141549121504578,0.9109274563820018,0.13568985176738882,0.856659289155058,0.7736903678668919,0.2389558232931727,3640,4426,119,0.09397470865360774,0.43552311435523117,1.09354756416144
simple_pc1_gm_gate_t254,score_outlier,0.01,qrs_visibility__le,0.3732307518330272,280,8477,0.7602925563288899,0.6237285029818385,0.9038461538461539,0.6723904202440126,0.43552311435523117,0.7811016144349477,0.8942307692307693,0.1910352187833511,0.8380030565461029,0.7676038173845757,0.2655786350148368,3640,4426,411,8066,0.776841061244731,0.5434498856739833,0.9038461538461539,0.6723904202440126,0.0,0.8141549121504578,0.9109274563820018,0.0,0.856659289155058,0.7736903678668919,0.0,3640,4426,0,119,1.0,0.3333333333333333,0.0,0.0,1.0,0.0,0.0,1.0,0.0,0.0,1.0,0,0,119,292,0.2054794520547945,0.11363636363636363,0.0,0.0,0.2054794520547945,0.0,0.0,1.0,0.0,0.0,0.3409090909090909,0,0,292,8185,0.7800855222968845,0.6231018267717076,0.9038461538461539,0.6723904202440126,1.0,0.8141549121504578,0.9109274563820018,0.13568985176738882,0.856659289155058,0.7736903678668919,0.2389558232931727,3640,4426,119,0.09397470865360774,0.43552311435523117,1.09354756416144
simple_pc1_gm_gate_t254,score_dual,0.03,pc3__le,0.0402656504923967,122,8477,0.7697298572608234,0.6335719468034517,0.9087912087912088,0.6879801174875735,0.41849148418491483,0.7698394228531533,0.8953249044398707,0.220795892169448,0.8335643190122213,0.7780758911460329,0.28907563025210087,3640,4426,411,8066,0.7876270766179023,0.5456160572647938,0.9087912087912088,0.6879801174875735,0.0,0.8025230470645318,0.9124962541204675,0.0,0.8523576397835609,0.7844905320108205,0.0,3640,4426,0,119,1.0,0.3333333333333333,0.0,0.0,1.0,0.0,0.0,1.0,0.0,0.0,1.0,0,0,119,292,0.1815068493150685,0.10241545893719807,0.0,0.0,0.1815068493150685,0.0,0.0,1.0,0.0,0.0,0.3072463768115942,0,0,292,8185,0.7907147220525351,0.639501658842703,0.9087912087912088,0.6879801174875735,1.0,0.8025230470645318,0.9124962541204675,0.16391184573002754,0.8523576397835609,0.7844905320108205,0.2816568047337278,3640,4426,119,0.07525415323580462,0.41849148418491483,1.0934279041228039
simple_pc1_gm_gate_t254,score_all_max,0.03,pc3__le,0.0402656504923967,122,8477,0.7697298572608234,0.6335719468034517,0.9087912087912088,0.6879801174875735,0.41849148418491483,0.7698394228531533,0.8953249044398707,0.220795892169448,0.8335643190122213,0.7780758911460329,0.28907563025210087,3640,4426,411,8066,0.7876270766179023,0.5456160572647938,0.9087912087912088,0.6879801174875735,0.0,0.8025230470645318,0.9124962541204675,0.0,0.8523576397835609,0.7844905320108205,0.0,3640,4426,0,119,1.0,0.3333333333333333,0.0,0.0,1.0,0.0,0.0,1.0,0.0,0.0,1.0,0,0,119,292,0.1815068493150685,0.10241545893719807,0.0,0.0,0.1815068493150685,0.0,0.0,1.0,0.0,0.0,0.3072463768115942,0,0,292,8185,0.7907147220525351,0.639501658842703,0.9087912087912088,0.6879801174875735,1.0,0.8025230470645318,0.9124962541204675,0.16391184573002754,0.8523576397835609,0.7844905320108205,0.2816568047337278,3640,4426,119,0.07525415323580462,0.41849148418491483,1.0934279041228039
simple_pc1_gm_gate_t254,score_core,0.03,pc3__le,0.0402656504923967,122,8477,0.7697298572608234,0.6335719468034517,0.9087912087912088,0.6879801174875735,0.41849148418491483,0.7698394228531533,0.8953249044398707,0.220795892169448,0.8335643190122213,0.7780758911460329,0.28907563025210087,3640,4426,411,8066,0.7876270766179023,0.5456160572647938,0.9087912087912088,0.6879801174875735,0.0,0.8025230470645318,0.9124962541204675,0.0,0.8523576397835609,0.7844905320108205,0.0,3640,4426,0,119,1.0,0.3333333333333333,0.0,0.0,1.0,0.0,0.0,1.0,0.0,0.0,1.0,0,0,119,292,0.1815068493150685,0.10241545893719807,0.0,0.0,0.1815068493150685,0.0,0.0,1.0,0.0,0.0,0.3072463768115942,0,0,292,8185,0.7907147220525351,0.639501658842703,0.9087912087912088,0.6879801174875735,1.0,0.8025230470645318,0.9124962541204675,0.16391184573002754,0.8523576397835609,0.7844905320108205,0.2816568047337278,3640,4426,119,0.07525415323580462,0.41849148418491483,1.0934279041228039
simple_pc1_gm_gate_t254,score_outlier,0.03,pc3__le,0.0402656504923967,122,8477,0.7697298572608234,0.6335719468034517,0.9087912087912088,0.6879801174875735,0.41849148418491483,0.7698394228531533,0.8953249044398707,0.220795892169448,0.8335643190122213,0.7780758911460329,0.28907563025210087,3640,4426,411,8066,0.7876270766179023,0.5456160572647938,0.9087912087912088,0.6879801174875735,0.0,0.8025230470645318,0.9124962541204675,0.0,0.8523576397835609,0.7844905320108205,0.0,3640,4426,0,119,1.0,0.3333333333333333,0.0,0.0,1.0,0.0,0.0,1.0,0.0,0.0,1.0,0,0,119,292,0.1815068493150685,0.10241545893719807,0.0,0.0,0.1815068493150685,0.0,0.0,1.0,0.0,0.0,0.3072463768115942,0,0,292,8185,0.7907147220525351,0.639501658842703,0.9087912087912088,0.6879801174875735,1.0,0.8025230470645318,0.9124962541204675,0.16391184573002754,0.8523576397835609,0.7844905320108205,0.2816568047337278,3640,4426,119,0.07525415323580462,0.41849148418491483,1.0934279041228039
simple_pc1_gm_gate_t254,score_dual,0.01,pc2__ge,5.370042063114319,274,8477,0.7607644213754866,0.6238592445056422,0.9038461538461539,0.6735201084500678,0.43309002433090027,0.7811016144349477,0.8941211757648471,0.19119226638023631,0.8380030565461029,0.768298969072165,0.26527570789865873,3640,4426,411,8066,0.7774609471857178,0.5437153896213577,0.9038461538461539,0.6735201084500678,0.0,0.8141549121504578,0.9110635696821516,0.0,0.856659289155058,0.7744868797090153,0.0,3640,4426,0,119,1.0,0.3333333333333333,0.0,0.0,1.0,0.0,0.0,1.0,0.0,0.0,1.0,0,0,119,292,0.20205479452054795,0.1120607787274454,0.0,0.0,0.20205479452054795,0.0,0.0,1.0,0.0,0.0,0.33618233618233617,0,0,292,8185,0.7806963958460599,0.6237692073139242,0.9038461538461539,0.6735201084500678,1.0,0.8141549121504578,0.9110635696821516,0.13646788990825687,0.856659289155058,0.7744868797090153,0.2401614530776993,3640,4426,119,0.09335482271262088,0.43309002433090027,1.0926541490693837
simple_pc1_gm_gate_t254,score_all_max,0.01,pc2__ge,5.370042063114319,274,8477,0.7607644213754866,0.6238592445056422,0.9038461538461539,0.6735201084500678,0.43309002433090027,0.7811016144349477,0.8941211757648471,0.19119226638023631,0.8380030565461029,0.768298969072165,0.26527570789865873,3640,4426,411,8066,0.7774609471857178,0.5437153896213577,0.9038461538461539,0.6735201084500678,0.0,0.8141549121504578,0.9110635696821516,0.0,0.856659289155058,0.7744868797090153,0.0,3640,4426,0,119,1.0,0.3333333333333333,0.0,0.0,1.0,0.0,0.0,1.0,0.0,0.0,1.0,0,0,119,292,0.20205479452054795,0.1120607787274454,0.0,0.0,0.20205479452054795,0.0,0.0,1.0,0.0,0.0,0.33618233618233617,0,0,292,8185,0.7806963958460599,0.6237692073139242,0.9038461538461539,0.6735201084500678,1.0,0.8141549121504578,0.9110635696821516,0.13646788990825687,0.856659289155058,0.7744868797090153,0.2401614530776993,3640,4426,119,0.09335482271262088,0.43309002433090027,1.0926541490693837
simple_pc1_gm_gate_t254,score_core,0.01,pc2__ge,5.370042063114319,274,8477,0.7607644213754866,0.6238592445056422,0.9038461538461539,0.6735201084500678,0.43309002433090027,0.7811016144349477,0.8941211757648471,0.19119226638023631,0.8380030565461029,0.768298969072165,0.26527570789865873,3640,4426,411,8066,0.7774609471857178,0.5437153896213577,0.9038461538461539,0.6735201084500678,0.0,0.8141549121504578,0.9110635696821516,0.0,0.856659289155058,0.7744868797090153,0.0,3640,4426,0,119,1.0,0.3333333333333333,0.0,0.0,1.0,0.0,0.0,1.0,0.0,0.0,1.0,0,0,119,292,0.20205479452054795,0.1120607787274454,0.0,0.0,0.20205479452054795,0.0,0.0,1.0,0.0,0.0,0.33618233618233617,0,0,292,8185,0.7806963958460599,0.6237692073139242,0.9038461538461539,0.6735201084500678,1.0,0.8141549121504578,0.9110635696821516,0.13646788990825687,0.856659289155058,0.7744868797090153,0.2401614530776993,3640,4426,119,0.09335482271262088,0.43309002433090027,1.0926541490693837
simple_pc1_gm_gate_t254,score_outlier,0.01,pc2__ge,5.370042063114319,274,8477,0.7607644213754866,0.6238592445056422,0.9038461538461539,0.6735201084500678,0.43309002433090027,0.7811016144349477,0.8941211757648471,0.19119226638023631,0.8380030565461029,0.768298969072165,0.26527570789865873,3640,4426,411,8066,0.7774609471857178,0.5437153896213577,0.9038461538461539,0.6735201084500678,0.0,0.8141549121504578,0.9110635696821516,0.0,0.856659289155058,0.7744868797090153,0.0,3640,4426,0,119,1.0,0.3333333333333333,0.0,0.0,1.0,0.0,0.0,1.0,0.0,0.0,1.0,0,0,119,292,0.20205479452054795,0.1120607787274454,0.0,0.0,0.20205479452054795,0.0,0.0,1.0,0.0,0.0,0.33618233618233617,0,0,292,8185,0.7806963958460599,0.6237692073139242,0.9038461538461539,0.6735201084500678,1.0,0.8141549121504578,0.9110635696821516,0.13646788990825687,0.856659289155058,0.7744868797090153,0.2401614530776993,3640,4426,119,0.09335482271262088,0.43309002433090027,1.0926541490693837
simple_pc1_gm_gate_t254,score_dual,0.02,pc1__le,-0.7734152380448813,205,8477,0.7647752742715583,0.6278536811104507,0.9076923076923077,0.6787166741979214,0.4257907542579075,0.7763157894736842,0.8943137838642453,0.20301624129930396,0.8368794326241135,0.7717405266538214,0.2749410840534171,3640,4426,411,8066,0.7820481031490206,0.544554276696363,0.9076923076923077,0.6787166741979214,0.0,0.8092089150134705,0.9114077669902912,0.0,0.8556260520523112,0.7780367780367781,0.0,3640,4426,0,119,1.0,0.3333333333333333,0.0,0.0,1.0,0.0,0.0,1.0,0.0,0.0,1.0,0,0,119,292,0.1917808219178082,0.10727969348659004,0.0,0.0,0.1917808219178082,0.0,0.0,1.0,0.0,0.0,0.3218390804597701,0,0,292,8185,0.7852168601099573,0.6303200424621288,0.9076923076923077,0.6787166741979214,1.0,0.8092089150134705,0.9114077669902912,0.14764267990074442,0.8556260520523112,0.7780367780367781,0.2572972972972973,3640,4426,119,0.08517232829159435,0.4257907542579075,1.092569161549497
simple_pc1_gm_gate_t254,score_all_max,0.02,pc1__le,-0.7734152380448813,205,8477,0.7647752742715583,0.6278536811104507,0.9076923076923077,0.6787166741979214,0.4257907542579075,0.7763157894736842,0.8943137838642453,0.20301624129930396,0.8368794326241135,0.7717405266538214,0.2749410840534171,3640,4426,411,8066,0.7820481031490206,0.544554276696363,0.9076923076923077,0.6787166741979214,0.0,0.8092089150134705,0.9114077669902912,0.0,0.8556260520523112,0.7780367780367781,0.0,3640,4426,0,119,1.0,0.3333333333333333,0.0,0.0,1.0,0.0,0.0,1.0,0.0,0.0,1.0,0,0,119,292,0.1917808219178082,0.10727969348659004,0.0,0.0,0.1917808219178082,0.0,0.0,1.0,0.0,0.0,0.3218390804597701,0,0,292,8185,0.7852168601099573,0.6303200424621288,0.9076923076923077,0.6787166741979214,1.0,0.8092089150134705,0.9114077669902912,0.14764267990074442,0.8556260520523112,0.7780367780367781,0.2572972972972973,3640,4426,119,0.08517232829159435,0.4257907542579075,1.092569161549497
simple_pc1_gm_gate_t254,score_core,0.02,pc1__le,-0.7734152380448813,205,8477,0.7647752742715583,0.6278536811104507,0.9076923076923077,0.6787166741979214,0.4257907542579075,0.7763157894736842,0.8943137838642453,0.20301624129930396,0.8368794326241135,0.7717405266538214,0.2749410840534171,3640,4426,411,8066,0.7820481031490206,0.544554276696363,0.9076923076923077,0.6787166741979214,0.0,0.8092089150134705,0.9114077669902912,0.0,0.8556260520523112,0.7780367780367781,0.0,3640,4426,0,119,1.0,0.3333333333333333,0.0,0.0,1.0,0.0,0.0,1.0,0.0,0.0,1.0,0,0,119,292,0.1917808219178082,0.10727969348659004,0.0,0.0,0.1917808219178082,0.0,0.0,1.0,0.0,0.0,0.3218390804597701,0,0,292,8185,0.7852168601099573,0.6303200424621288,0.9076923076923077,0.6787166741979214,1.0,0.8092089150134705,0.9114077669902912,0.14764267990074442,0.8556260520523112,0.7780367780367781,0.2572972972972973,3640,4426,119,0.08517232829159435,0.4257907542579075,1.092569161549497
simple_pc1_gm_gate_t254,score_outlier,0.02,pc1__le,-0.7734152380448813,205,8477,0.7647752742715583,0.6278536811104507,0.9076923076923077,0.6787166741979214,0.4257907542579075,0.7763157894736842,0.8943137838642453,0.20301624129930396,0.8368794326241135,0.7717405266538214,0.2749410840534171,3640,4426,411,8066,0.7820481031490206,0.544554276696363,0.9076923076923077,0.6787166741979214,0.0,0.8092089150134705,0.9114077669902912,0.0,0.8556260520523112,0.7780367780367781,0.0,3640,4426,0,119,1.0,0.3333333333333333,0.0,0.0,1.0,0.0,0.0,1.0,0.0,0.0,1.0,0,0,119,292,0.1917808219178082,0.10727969348659004,0.0,0.0,0.1917808219178082,0.0,0.0,1.0,0.0,0.0,0.3218390804597701,0,0,292,8185,0.7852168601099573,0.6303200424621288,0.9076923076923077,0.6787166741979214,1.0,0.8092089150134705,0.9114077669902912,0.14764267990074442,0.8556260520523112,0.7780367780367781,0.2572972972972973,3640,4426,119,0.08517232829159435,0.4257907542579075,1.092569161549497
simple_pc1_gm_gate_t254,score_dual,0.03,pc1__le,-0.7734152380448813,179,8477,0.7660729031496992,0.6293526792321281,0.9087912087912088,0.6805241753276096,0.4233576642335766,0.7739822180627047,0.8945648945648945,0.20813397129186603,0.8359868587313621,0.7730014115231618,0.27906976744186046,3640,4426,411,8066,0.7835358294073891,0.5446939282614243,0.9087912087912088,0.6805241753276096,0.0,0.806829268292683,0.9116222760290557,0.0,0.8547803617571059,0.7793014230271669,0.0,3640,4426,0,119,1.0,0.3333333333333333,0.0,0.0,1.0,0.0,0.0,1.0,0.0,0.0,1.0,0,0,119,292,0.18835616438356165,0.10566762728146013,0.0,0.0,0.18835616438356165,0.0,0.0,1.0,0.0,0.0,0.3170028818443804,0,0,292,8185,0.786682956627978,0.6328420764095725,0.9087912087912088,0.6805241753276096,1.0,0.806829268292683,0.9116222760290557,0.1523687580025608,0.8547803617571059,0.7793014230271669,0.2644444444444444,3640,4426,119,0.08207289858666006,0.4233576642335766,1.0925015102889852
simple_pc1_gm_gate_t254,score_all_max,0.03,pc1__le,-0.7734152380448813,179,8477,0.7660729031496992,0.6293526792321281,0.9087912087912088,0.6805241753276096,0.4233576642335766,0.7739822180627047,0.8945648945648945,0.20813397129186603,0.8359868587313621,0.7730014115231618,0.27906976744186046,3640,4426,411,8066,0.7835358294073891,0.5446939282614243,0.9087912087912088,0.6805241753276096,0.0,0.806829268292683,0.9116222760290557,0.0,0.8547803617571059,0.7793014230271669,0.0,3640,4426,0,119,1.0,0.3333333333333333,0.0,0.0,1.0,0.0,0.0,1.0,0.0,0.0,1.0,0,0,119,292,0.18835616438356165,0.10566762728146013,0.0,0.0,0.18835616438356165,0.0,0.0,1.0,0.0,0.0,0.3170028818443804,0,0,292,8185,0.786682956627978,0.6328420764095725,0.9087912087912088,0.6805241753276096,1.0,0.806829268292683,0.9116222760290557,0.1523687580025608,0.8547803617571059,0.7793014230271669,0.2644444444444444,3640,4426,119,0.08207289858666006,0.4233576642335766,1.0925015102889852
simple_pc1_gm_gate_t254,score_core,0.03,pc1__le,-0.7734152380448813,179,8477,0.7660729031496992,0.6293526792321281,0.9087912087912088,0.6805241753276096,0.4233576642335766,0.7739822180627047,0.8945648945648945,0.20813397129186603,0.8359868587313621,0.7730014115231618,0.27906976744186046,3640,4426,411,8066,0.7835358294073891,0.5446939282614243,0.9087912087912088,0.6805241753276096,0.0,0.806829268292683,0.9116222760290557,0.0,0.8547803617571059,0.7793014230271669,0.0,3640,4426,0,119,1.0,0.3333333333333333,0.0,0.0,1.0,0.0,0.0,1.0,0.0,0.0,1.0,0,0,119,292,0.18835616438356165,0.10566762728146013,0.0,0.0,0.18835616438356165,0.0,0.0,1.0,0.0,0.0,0.3170028818443804,0,0,292,8185,0.786682956627978,0.6328420764095725,0.9087912087912088,0.6805241753276096,1.0,0.806829268292683,0.9116222760290557,0.1523687580025608,0.8547803617571059,0.7793014230271669,0.2644444444444444,3640,4426,119,0.08207289858666006,0.4233576642335766,1.0925015102889852
simple_pc1_gm_gate_t254,score_outlier,0.03,pc1__le,-0.7734152380448813,179,8477,0.7660729031496992,0.6293526792321281,0.9087912087912088,0.6805241753276096,0.4233576642335766,0.7739822180627047,0.8945648945648945,0.20813397129186603,0.8359868587313621,0.7730014115231618,0.27906976744186046,3640,4426,411,8066,0.7835358294073891,0.5446939282614243,0.9087912087912088,0.6805241753276096,0.0,0.806829268292683,0.9116222760290557,0.0,0.8547803617571059,0.7793014230271669,0.0,3640,4426,0,119,1.0,0.3333333333333333,0.0,0.0,1.0,0.0,0.0,1.0,0.0,0.0,1.0,0,0,119,292,0.18835616438356165,0.10566762728146013,0.0,0.0,0.18835616438356165,0.0,0.0,1.0,0.0,0.0,0.3170028818443804,0,0,292,8185,0.786682956627978,0.6328420764095725,0.9087912087912088,0.6805241753276096,1.0,0.806829268292683,0.9116222760290557,0.1523687580025608,0.8547803617571059,0.7793014230271669,0.2644444444444444,3640,4426,119,0.08207289858666006,0.4233576642335766,1.0925015102889852
simple_pc1_gm_gate_t254,score_dual,0.03,pc1__le,0.15713262094765446,186,8477,0.765247139318155,0.6284656998053634,0.9087912087912088,0.6789426118391324,0.4233576642335766,0.7739822180627047,0.8943452380952381,0.20640569395017794,0.8359868587313621,0.77189827896224,0.27751196172248804,3640,4426,411,8066,0.7826679890900075,0.5443251212331188,0.9087912087912088,0.6789426118391324,0.0,0.806829268292683,0.9114346375492872,0.0,0.8547803617571059,0.7781950019422504,0.0,3640,4426,0,119,1.0,0.3333333333333333,0.0,0.0,1.0,0.0,0.0,1.0,0.0,0.0,1.0,0,0,119,292,0.18835616438356165,0.10566762728146013,0.0,0.0,0.18835616438356165,0.0,0.0,1.0,0.0,0.0,0.3170028818443804,0,0,292,8185,0.7858277336591326,0.6317929639380068,0.9087912087912088,0.6789426118391324,1.0,0.806829268292683,0.9114346375492872,0.15101522842639595,0.8547803617571059,0.7781950019422504,0.2624035281146637,3640,4426,119,0.08294073890404166,0.4233576642335766,1.0916757464574411
simple_pc1_gm_gate_t254,score_all_max,0.03,pc1__le,0.15713262094765446,186,8477,0.765247139318155,0.6284656998053634,0.9087912087912088,0.6789426118391324,0.4233576642335766,0.7739822180627047,0.8943452380952381,0.20640569395017794,0.8359868587313621,0.77189827896224,0.27751196172248804,3640,4426,411,8066,0.7826679890900075,0.5443251212331188,0.9087912087912088,0.6789426118391324,0.0,0.806829268292683,0.9114346375492872,0.0,0.8547803617571059,0.7781950019422504,0.0,3640,4426,0,119,1.0,0.3333333333333333,0.0,0.0,1.0,0.0,0.0,1.0,0.0,0.0,1.0,0,0,119,292,0.18835616438356165,0.10566762728146013,0.0,0.0,0.18835616438356165,0.0,0.0,1.0,0.0,0.0,0.3170028818443804,0,0,292,8185,0.7858277336591326,0.6317929639380068,0.9087912087912088,0.6789426118391324,1.0,0.806829268292683,0.9114346375492872,0.15101522842639595,0.8547803617571059,0.7781950019422504,0.2624035281146637,3640,4426,119,0.08294073890404166,0.4233576642335766,1.0916757464574411
simple_pc1_gm_gate_t254,score_core,0.03,pc1__le,0.15713262094765446,186,8477,0.765247139318155,0.6284656998053634,0.9087912087912088,0.6789426118391324,0.4233576642335766,0.7739822180627047,0.8943452380952381,0.20640569395017794,0.8359868587313621,0.77189827896224,0.27751196172248804,3640,4426,411,8066,0.7826679890900075,0.5443251212331188,0.9087912087912088,0.6789426118391324,0.0,0.806829268292683,0.9114346375492872,0.0,0.8547803617571059,0.7781950019422504,0.0,3640,4426,0,119,1.0,0.3333333333333333,0.0,0.0,1.0,0.0,0.0,1.0,0.0,0.0,1.0,0,0,119,292,0.18835616438356165,0.10566762728146013,0.0,0.0,0.18835616438356165,0.0,0.0,1.0,0.0,0.0,0.3170028818443804,0,0,292,8185,0.7858277336591326,0.6317929639380068,0.9087912087912088,0.6789426118391324,1.0,0.806829268292683,0.9114346375492872,0.15101522842639595,0.8547803617571059,0.7781950019422504,0.2624035281146637,3640,4426,119,0.08294073890404166,0.4233576642335766,1.0916757464574411
simple_pc1_gm_gate_t254,score_outlier,0.03,pc1__le,0.15713262094765446,186,8477,0.765247139318155,0.6284656998053634,0.9087912087912088,0.6789426118391324,0.4233576642335766,0.7739822180627047,0.8943452380952381,0.20640569395017794,0.8359868587313621,0.77189827896224,0.27751196172248804,3640,4426,411,8066,0.7826679890900075,0.5443251212331188,0.9087912087912088,0.6789426118391324,0.0,0.806829268292683,0.9114346375492872,0.0,0.8547803617571059,0.7781950019422504,0.0,3640,4426,0,119,1.0,0.3333333333333333,0.0,0.0,1.0,0.0,0.0,1.0,0.0,0.0,1.0,0,0,119,292,0.18835616438356165,0.10566762728146013,0.0,0.0,0.18835616438356165,0.0,0.0,1.0,0.0,0.0,0.3170028818443804,0,0,292,8185,0.7858277336591326,0.6317929639380068,0.9087912087912088,0.6789426118391324,1.0,0.806829268292683,0.9114346375492872,0.15101522842639595,0.8547803617571059,0.7781950019422504,0.2624035281146637,3640,4426,119,0.08294073890404166,0.4233576642335766,1.0916757464574411
simple_pc1_gm_gate_t254,score_dual,0.05,pc3__le,2.1506591515994145,143,8477,0.7679603633360859,0.6313245561028497,0.9093406593406593,0.684139177586986,0.41849148418491483,0.7712022367194781,0.8945347119645495,0.215,0.8345940494200706,0.7753168608372808,0.28406275805119735,3640,4426,411,8066,0.7857674187949417,0.5450451952614883,0.9093406593406593,0.684139177586986,0.0,0.8037882467217096,0.9120481927710843,0.0,0.8533127094612013,0.7818228763232636,0.0,3640,4426,0,119,1.0,0.3333333333333333,0.0,0.0,1.0,0.0,0.0,1.0,0.0,0.0,1.0,0,0,119,292,0.1815068493150685,0.10241545893719807,0.0,0.0,0.1815068493150685,0.0,0.0,1.0,0.0,0.0,0.3072463768115942,0,0,292,8185,0.7888821014050091,0.6366541252076007,0.9093406593406593,0.684139177586986,1.0,0.8037882467217096,0.9120481927710843,0.15930388219544847,0.8533127094612013,0.7818228763232636,0.2748267898383372,3640,4426,119,0.07785767418794942,0.41849148418491483,1.0916584101980662
simple_pc1_gm_gate_t254,score_all_max,0.05,pc3__le,2.1506591515994145,143,8477,0.7679603633360859,0.6313245561028497,0.9093406593406593,0.684139177586986,0.41849148418491483,0.7712022367194781,0.8945347119645495,0.215,0.8345940494200706,0.7753168608372808,0.28406275805119735,3640,4426,411,8066,0.7857674187949417,0.5450451952614883,0.9093406593406593,0.684139177586986,0.0,0.8037882467217096,0.9120481927710843,0.0,0.8533127094612013,0.7818228763232636,0.0,3640,4426,0,119,1.0,0.3333333333333333,0.0,0.0,1.0,0.0,0.0,1.0,0.0,0.0,1.0,0,0,119,292,0.1815068493150685,0.10241545893719807,0.0,0.0,0.1815068493150685,0.0,0.0,1.0,0.0,0.0,0.3072463768115942,0,0,292,8185,0.7888821014050091,0.6366541252076007,0.9093406593406593,0.684139177586986,1.0,0.8037882467217096,0.9120481927710843,0.15930388219544847,0.8533127094612013,0.7818228763232636,0.2748267898383372,3640,4426,119,0.07785767418794942,0.41849148418491483,1.0916584101980662
simple_pc1_gm_gate_t254,score_core,0.05,pc3__le,2.1506591515994145,143,8477,0.7679603633360859,0.6313245561028497,0.9093406593406593,0.684139177586986,0.41849148418491483,0.7712022367194781,0.8945347119645495,0.215,0.8345940494200706,0.7753168608372808,0.28406275805119735,3640,4426,411,8066,0.7857674187949417,0.5450451952614883,0.9093406593406593,0.684139177586986,0.0,0.8037882467217096,0.9120481927710843,0.0,0.8533127094612013,0.7818228763232636,0.0,3640,4426,0,119,1.0,0.3333333333333333,0.0,0.0,1.0,0.0,0.0,1.0,0.0,0.0,1.0,0,0,119,292,0.1815068493150685,0.10241545893719807,0.0,0.0,0.1815068493150685,0.0,0.0,1.0,0.0,0.0,0.3072463768115942,0,0,292,8185,0.7888821014050091,0.6366541252076007,0.9093406593406593,0.684139177586986,1.0,0.8037882467217096,0.9120481927710843,0.15930388219544847,0.8533127094612013,0.7818228763232636,0.2748267898383372,3640,4426,119,0.07785767418794942,0.41849148418491483,1.0916584101980662
simple_pc1_gm_gate_t254,score_outlier,0.05,pc3__le,2.1506591515994145,143,8477,0.7679603633360859,0.6313245561028497,0.9093406593406593,0.684139177586986,0.41849148418491483,0.7712022367194781,0.8945347119645495,0.215,0.8345940494200706,0.7753168608372808,0.28406275805119735,3640,4426,411,8066,0.7857674187949417,0.5450451952614883,0.9093406593406593,0.684139177586986,0.0,0.8037882467217096,0.9120481927710843,0.0,0.8533127094612013,0.7818228763232636,0.0,3640,4426,0,119,1.0,0.3333333333333333,0.0,0.0,1.0,0.0,0.0,1.0,0.0,0.0,1.0,0,0,119,292,0.1815068493150685,0.10241545893719807,0.0,0.0,0.1815068493150685,0.0,0.0,1.0,0.0,0.0,0.3072463768115942,0,0,292,8185,0.7888821014050091,0.6366541252076007,0.9093406593406593,0.684139177586986,1.0,0.8037882467217096,0.9120481927710843,0.15930388219544847,0.8533127094612013,0.7818228763232636,0.2748267898383372,3640,4426,119,0.07785767418794942,0.41849148418491483,1.0916584101980662
simple_pc1_gm_gate_t254,score_dual,0.02,pc1__le,0.15713262094765446,213,8477,0.763831544178365,0.6268601746815771,0.9076923076923077,0.6769091730682332,0.4257907542579075,0.7763157894736842,0.8940614741868099,0.20114942528735633,0.8368794326241135,0.7704770477047704,0.273224043715847,3640,4426,411,8066,0.7810562856434417,0.5441318540113874,0.9076923076923077,0.6769091730682332,0.0,0.8092089150134705,0.9111922141119222,0.0,0.8556260520523112,0.7767695099818511,0.0,3640,4426,0,119,1.0,0.3333333333333333,0.0,0.0,1.0,0.0,0.0,1.0,0.0,0.0,1.0,0,0,119,292,0.1917808219178082,0.10727969348659004,0.0,0.0,0.1917808219178082,0.0,0.0,1.0,0.0,0.0,0.3218390804597701,0,0,292,8185,0.7842394624312767,0.6291622219999548,0.9076923076923077,0.6769091730682332,1.0,0.8092089150134705,0.9111922141119222,0.14619164619164618,0.8556260520523112,0.7767695099818511,0.25509110396570206,3640,4426,119,0.08616414579717332,0.4257907542579075,1.0916254314563036
simple_pc1_gm_gate_t254,score_all_max,0.02,pc1__le,0.15713262094765446,213,8477,0.763831544178365,0.6268601746815771,0.9076923076923077,0.6769091730682332,0.4257907542579075,0.7763157894736842,0.8940614741868099,0.20114942528735633,0.8368794326241135,0.7704770477047704,0.273224043715847,3640,4426,411,8066,0.7810562856434417,0.5441318540113874,0.9076923076923077,0.6769091730682332,0.0,0.8092089150134705,0.9111922141119222,0.0,0.8556260520523112,0.7767695099818511,0.0,3640,4426,0,119,1.0,0.3333333333333333,0.0,0.0,1.0,0.0,0.0,1.0,0.0,0.0,1.0,0,0,119,292,0.1917808219178082,0.10727969348659004,0.0,0.0,0.1917808219178082,0.0,0.0,1.0,0.0,0.0,0.3218390804597701,0,0,292,8185,0.7842394624312767,0.6291622219999548,0.9076923076923077,0.6769091730682332,1.0,0.8092089150134705,0.9111922141119222,0.14619164619164618,0.8556260520523112,0.7767695099818511,0.25509110396570206,3640,4426,119,0.08616414579717332,0.4257907542579075,1.0916254314563036
simple_pc1_gm_gate_t254,score_core,0.02,pc1__le,0.15713262094765446,213,8477,0.763831544178365,0.6268601746815771,0.9076923076923077,0.6769091730682332,0.4257907542579075,0.7763157894736842,0.8940614741868099,0.20114942528735633,0.8368794326241135,0.7704770477047704,0.273224043715847,3640,4426,411,8066,0.7810562856434417,0.5441318540113874,0.9076923076923077,0.6769091730682332,0.0,0.8092089150134705,0.9111922141119222,0.0,0.8556260520523112,0.7767695099818511,0.0,3640,4426,0,119,1.0,0.3333333333333333,0.0,0.0,1.0,0.0,0.0,1.0,0.0,0.0,1.0,0,0,119,292,0.1917808219178082,0.10727969348659004,0.0,0.0,0.1917808219178082,0.0,0.0,1.0,0.0,0.0,0.3218390804597701,0,0,292,8185,0.7842394624312767,0.6291622219999548,0.9076923076923077,0.6769091730682332,1.0,0.8092089150134705,0.9111922141119222,0.14619164619164618,0.8556260520523112,0.7767695099818511,0.25509110396570206,3640,4426,119,0.08616414579717332,0.4257907542579075,1.0916254314563036
simple_pc1_gm_gate_t254,score_outlier,0.02,pc1__le,0.15713262094765446,213,8477,0.763831544178365,0.6268601746815771,0.9076923076923077,0.6769091730682332,0.4257907542579075,0.7763157894736842,0.8940614741868099,0.20114942528735633,0.8368794326241135,0.7704770477047704,0.273224043715847,3640,4426,411,8066,0.7810562856434417,0.5441318540113874,0.9076923076923077,0.6769091730682332,0.0,0.8092089150134705,0.9111922141119222,0.0,0.8556260520523112,0.7767695099818511,0.0,3640,4426,0,119,1.0,0.3333333333333333,0.0,0.0,1.0,0.0,0.0,1.0,0.0,0.0,1.0,0,0,119,292,0.1917808219178082,0.10727969348659004,0.0,0.0,0.1917808219178082,0.0,0.0,1.0,0.0,0.0,0.3218390804597701,0,0,292,8185,0.7842394624312767,0.6291622219999548,0.9076923076923077,0.6769091730682332,1.0,0.8092089150134705,0.9111922141119222,0.14619164619164618,0.8556260520523112,0.7767695099818511,0.25509110396570206,3640,4426,119,0.08616414579717332,0.4257907542579075,1.0916254314563036
simple_pc1_gm_gate_t254,score_dual,0.03,pc2__ge,5.370042063114319,188,8477,0.7650112067948567,0.6282132187461931,0.9087912087912088,0.6784907365567103,0.4233576642335766,0.7739822180627047,0.8942823108993448,0.20591715976331362,0.8359868587313621,0.7715827338129496,0.2770700636942675,3640,4426,411,8066,0.7824200347136127,0.5442196249676905,0.9087912087912088,0.6784907365567103,0.0,0.806829268292683,0.9113808801213961,0.0,0.8547803617571059,0.7778785131459656,0.0,3640,4426,0,119,1.0,0.3333333333333333,0.0,0.0,1.0,0.0,0.0,1.0,0.0,0.0,1.0,0,0,119,292,0.18835616438356165,0.10566762728146013,0.0,0.0,0.18835616438356165,0.0,0.0,1.0,0.0,0.0,0.3170028818443804,0,0,292,8185,0.7855833842394624,0.6314950191737778,0.9087912087912088,0.6784907365567103,1.0,0.806829268292683,0.9113808801213961,0.15063291139240506,0.8547803617571059,0.7778785131459656,0.26182618261826185,3640,4426,119,0.0831886932804364,0.4233576642335766,1.0914398139341428
simple_pc1_gm_gate_t254,score_dual,0.03,pc3__le,3.281193089810729,188,8477,0.7650112067948567,0.6282132187461931,0.9087912087912088,0.6784907365567103,0.4233576642335766,0.7739822180627047,0.8942823108993448,0.20591715976331362,0.8359868587313621,0.7715827338129496,0.2770700636942675,3640,4426,411,8066,0.7824200347136127,0.5442196249676905,0.9087912087912088,0.6784907365567103,0.0,0.806829268292683,0.9113808801213961,0.0,0.8547803617571059,0.7778785131459656,0.0,3640,4426,0,119,1.0,0.3333333333333333,0.0,0.0,1.0,0.0,0.0,1.0,0.0,0.0,1.0,0,0,119,292,0.18835616438356165,0.10566762728146013,0.0,0.0,0.18835616438356165,0.0,0.0,1.0,0.0,0.0,0.3170028818443804,0,0,292,8185,0.7855833842394624,0.6314950191737778,0.9087912087912088,0.6784907365567103,1.0,0.806829268292683,0.9113808801213961,0.15063291139240506,0.8547803617571059,0.7778785131459656,0.26182618261826185,3640,4426,119,0.0831886932804364,0.4233576642335766,1.0914398139341428
simple_pc1_gm_gate_t254,score_all_max,0.03,pc2__ge,5.370042063114319,188,8477,0.7650112067948567,0.6282132187461931,0.9087912087912088,0.6784907365567103,0.4233576642335766,0.7739822180627047,0.8942823108993448,0.20591715976331362,0.8359868587313621,0.7715827338129496,0.2770700636942675,3640,4426,411,8066,0.7824200347136127,0.5442196249676905,0.9087912087912088,0.6784907365567103,0.0,0.806829268292683,0.9113808801213961,0.0,0.8547803617571059,0.7778785131459656,0.0,3640,4426,0,119,1.0,0.3333333333333333,0.0,0.0,1.0,0.0,0.0,1.0,0.0,0.0,1.0,0,0,119,292,0.18835616438356165,0.10566762728146013,0.0,0.0,0.18835616438356165,0.0,0.0,1.0,0.0,0.0,0.3170028818443804,0,0,292,8185,0.7855833842394624,0.6314950191737778,0.9087912087912088,0.6784907365567103,1.0,0.806829268292683,0.9113808801213961,0.15063291139240506,0.8547803617571059,0.7778785131459656,0.26182618261826185,3640,4426,119,0.0831886932804364,0.4233576642335766,1.0914398139341428
simple_pc1_gm_gate_t254,score_all_max,0.03,pc3__le,3.281193089810729,188,8477,0.7650112067948567,0.6282132187461931,0.9087912087912088,0.6784907365567103,0.4233576642335766,0.7739822180627047,0.8942823108993448,0.20591715976331362,0.8359868587313621,0.7715827338129496,0.2770700636942675,3640,4426,411,8066,0.7824200347136127,0.5442196249676905,0.9087912087912088,0.6784907365567103,0.0,0.806829268292683,0.9113808801213961,0.0,0.8547803617571059,0.7778785131459656,0.0,3640,4426,0,119,1.0,0.3333333333333333,0.0,0.0,1.0,0.0,0.0,1.0,0.0,0.0,1.0,0,0,119,292,0.18835616438356165,0.10566762728146013,0.0,0.0,0.18835616438356165,0.0,0.0,1.0,0.0,0.0,0.3170028818443804,0,0,292,8185,0.7855833842394624,0.6314950191737778,0.9087912087912088,0.6784907365567103,1.0,0.806829268292683,0.9113808801213961,0.15063291139240506,0.8547803617571059,0.7778785131459656,0.26182618261826185,3640,4426,119,0.0831886932804364,0.4233576642335766,1.0914398139341428
simple_pc1_gm_gate_t254,score_core,0.03,pc2__ge,5.370042063114319,188,8477,0.7650112067948567,0.6282132187461931,0.9087912087912088,0.6784907365567103,0.4233576642335766,0.7739822180627047,0.8942823108993448,0.20591715976331362,0.8359868587313621,0.7715827338129496,0.2770700636942675,3640,4426,411,8066,0.7824200347136127,0.5442196249676905,0.9087912087912088,0.6784907365567103,0.0,0.806829268292683,0.9113808801213961,0.0,0.8547803617571059,0.7778785131459656,0.0,3640,4426,0,119,1.0,0.3333333333333333,0.0,0.0,1.0,0.0,0.0,1.0,0.0,0.0,1.0,0,0,119,292,0.18835616438356165,0.10566762728146013,0.0,0.0,0.18835616438356165,0.0,0.0,1.0,0.0,0.0,0.3170028818443804,0,0,292,8185,0.7855833842394624,0.6314950191737778,0.9087912087912088,0.6784907365567103,1.0,0.806829268292683,0.9113808801213961,0.15063291139240506,0.8547803617571059,0.7778785131459656,0.26182618261826185,3640,4426,119,0.0831886932804364,0.4233576642335766,1.0914398139341428
simple_pc1_gm_gate_t254,score_core,0.03,pc3__le,3.281193089810729,188,8477,0.7650112067948567,0.6282132187461931,0.9087912087912088,0.6784907365567103,0.4233576642335766,0.7739822180627047,0.8942823108993448,0.20591715976331362,0.8359868587313621,0.7715827338129496,0.2770700636942675,3640,4426,411,8066,0.7824200347136127,0.5442196249676905,0.9087912087912088,0.6784907365567103,0.0,0.806829268292683,0.9113808801213961,0.0,0.8547803617571059,0.7778785131459656,0.0,3640,4426,0,119,1.0,0.3333333333333333,0.0,0.0,1.0,0.0,0.0,1.0,0.0,0.0,1.0,0,0,119,292,0.18835616438356165,0.10566762728146013,0.0,0.0,0.18835616438356165,0.0,0.0,1.0,0.0,0.0,0.3170028818443804,0,0,292,8185,0.7855833842394624,0.6314950191737778,0.9087912087912088,0.6784907365567103,1.0,0.806829268292683,0.9113808801213961,0.15063291139240506,0.8547803617571059,0.7778785131459656,0.26182618261826185,3640,4426,119,0.0831886932804364,0.4233576642335766,1.0914398139341428
simple_pc1_gm_gate_t254,score_outlier,0.03,pc2__ge,5.370042063114319,188,8477,0.7650112067948567,0.6282132187461931,0.9087912087912088,0.6784907365567103,0.4233576642335766,0.7739822180627047,0.8942823108993448,0.20591715976331362,0.8359868587313621,0.7715827338129496,0.2770700636942675,3640,4426,411,8066,0.7824200347136127,0.5442196249676905,0.9087912087912088,0.6784907365567103,0.0,0.806829268292683,0.9113808801213961,0.0,0.8547803617571059,0.7778785131459656,0.0,3640,4426,0,119,1.0,0.3333333333333333,0.0,0.0,1.0,0.0,0.0,1.0,0.0,0.0,1.0,0,0,119,292,0.18835616438356165,0.10566762728146013,0.0,0.0,0.18835616438356165,0.0,0.0,1.0,0.0,0.0,0.3170028818443804,0,0,292,8185,0.7855833842394624,0.6314950191737778,0.9087912087912088,0.6784907365567103,1.0,0.806829268292683,0.9113808801213961,0.15063291139240506,0.8547803617571059,0.7778785131459656,0.26182618261826185,3640,4426,119,0.0831886932804364,0.4233576642335766,1.0914398139341428
simple_pc1_gm_gate_t254,score_outlier,0.03,pc3__le,3.281193089810729,188,8477,0.7650112067948567,0.6282132187461931,0.9087912087912088,0.6784907365567103,0.4233576642335766,0.7739822180627047,0.8942823108993448,0.20591715976331362,0.8359868587313621,0.7715827338129496,0.2770700636942675,3640,4426,411,8066,0.7824200347136127,0.5442196249676905,0.9087912087912088,0.6784907365567103,0.0,0.806829268292683,0.9113808801213961,0.0,0.8547803617571059,0.7778785131459656,0.0,3640,4426,0,119,1.0,0.3333333333333333,0.0,0.0,1.0,0.0,0.0,1.0,0.0,0.0,1.0,0,0,119,292,0.18835616438356165,0.10566762728146013,0.0,0.0,0.18835616438356165,0.0,0.0,1.0,0.0,0.0,0.3170028818443804,0,0,292,8185,0.7855833842394624,0.6314950191737778,0.9087912087912088,0.6784907365567103,1.0,0.806829268292683,0.9113808801213961,0.15063291139240506,0.8547803617571059,0.7778785131459656,0.26182618261826185,3640,4426,119,0.0831886932804364,0.4233576642335766,1.0914398139341428
simple_pc1_gm_gate_t254,score_dual,0.02,pc2__ge,5.370042063114319,216,8477,0.7634776453934174,0.6264892250280676,0.9076923076923077,0.6762313601446001,0.4257907542579075,0.7763157894736842,0.8939665471923537,0.2004581901489118,0.8368794326241135,0.770002572678158,0.27258566978193144,3640,4426,411,8066,0.7806843540788495,0.5439732195294762,0.9076923076923077,0.6762313601446001,0.0,0.8092089150134705,0.9111111111111111,0.0,0.8556260520523112,0.7762936065361172,0.0,3640,4426,0,119,1.0,0.3333333333333333,0.0,0.0,1.0,0.0,0.0,1.0,0.0,0.0,1.0,0,0,119,292,0.1917808219178082,0.10727969348659004,0.0,0.0,0.1917808219178082,0.0,0.0,1.0,0.0,0.0,0.3218390804597701,0,0,292,8185,0.7838729383017715,0.6287310542873109,0.9076923076923077,0.6762313601446001,1.0,0.8092089150134705,0.9111111111111111,0.1456548347613219,0.8556260520523112,0.7762936065361172,0.25427350427350426,3640,4426,119,0.08653607736176544,0.4257907542579075,1.0912715326713562
simple_pc1_gm_gate_t254,score_all_max,0.02,pc2__ge,5.370042063114319,216,8477,0.7634776453934174,0.6264892250280676,0.9076923076923077,0.6762313601446001,0.4257907542579075,0.7763157894736842,0.8939665471923537,0.2004581901489118,0.8368794326241135,0.770002572678158,0.27258566978193144,3640,4426,411,8066,0.7806843540788495,0.5439732195294762,0.9076923076923077,0.6762313601446001,0.0,0.8092089150134705,0.9111111111111111,0.0,0.8556260520523112,0.7762936065361172,0.0,3640,4426,0,119,1.0,0.3333333333333333,0.0,0.0,1.0,0.0,0.0,1.0,0.0,0.0,1.0,0,0,119,292,0.1917808219178082,0.10727969348659004,0.0,0.0,0.1917808219178082,0.0,0.0,1.0,0.0,0.0,0.3218390804597701,0,0,292,8185,0.7838729383017715,0.6287310542873109,0.9076923076923077,0.6762313601446001,1.0,0.8092089150134705,0.9111111111111111,0.1456548347613219,0.8556260520523112,0.7762936065361172,0.25427350427350426,3640,4426,119,0.08653607736176544,0.4257907542579075,1.0912715326713562
simple_pc1_gm_gate_t254,score_core,0.02,pc2__ge,5.370042063114319,216,8477,0.7634776453934174,0.6264892250280676,0.9076923076923077,0.6762313601446001,0.4257907542579075,0.7763157894736842,0.8939665471923537,0.2004581901489118,0.8368794326241135,0.770002572678158,0.27258566978193144,3640,4426,411,8066,0.7806843540788495,0.5439732195294762,0.9076923076923077,0.6762313601446001,0.0,0.8092089150134705,0.9111111111111111,0.0,0.8556260520523112,0.7762936065361172,0.0,3640,4426,0,119,1.0,0.3333333333333333,0.0,0.0,1.0,0.0,0.0,1.0,0.0,0.0,1.0,0,0,119,292,0.1917808219178082,0.10727969348659004,0.0,0.0,0.1917808219178082,0.0,0.0,1.0,0.0,0.0,0.3218390804597701,0,0,292,8185,0.7838729383017715,0.6287310542873109,0.9076923076923077,0.6762313601446001,1.0,0.8092089150134705,0.9111111111111111,0.1456548347613219,0.8556260520523112,0.7762936065361172,0.25427350427350426,3640,4426,119,0.08653607736176544,0.4257907542579075,1.0912715326713562
simple_pc1_gm_gate_t254,score_outlier,0.02,pc2__ge,5.370042063114319,216,8477,0.7634776453934174,0.6264892250280676,0.9076923076923077,0.6762313601446001,0.4257907542579075,0.7763157894736842,0.8939665471923537,0.2004581901489118,0.8368794326241135,0.770002572678158,0.27258566978193144,3640,4426,411,8066,0.7806843540788495,0.5439732195294762,0.9076923076923077,0.6762313601446001,0.0,0.8092089150134705,0.9111111111111111,0.0,0.8556260520523112,0.7762936065361172,0.0,3640,4426,0,119,1.0,0.3333333333333333,0.0,0.0,1.0,0.0,0.0,1.0,0.0,0.0,1.0,0,0,119,292,0.1917808219178082,0.10727969348659004,0.0,0.0,0.1917808219178082,0.0,0.0,1.0,0.0,0.0,0.3218390804597701,0,0,292,8185,0.7838729383017715,0.6287310542873109,0.9076923076923077,0.6762313601446001,1.0,0.8092089150134705,0.9111111111111111,0.1456548347613219,0.8556260520523112,0.7762936065361172,0.25427350427350426,3640,4426,119,0.08653607736176544,0.4257907542579075,1.0912715326713562
simple_pc1_gm_gate_t254,score_dual,0.03,none,,190,8477,0.7647752742715583,0.627961151983308,0.9087912087912088,0.6780388612742883,0.4233576642335766,0.7739822180627047,0.8942193087008343,0.20543093270365997,0.8359868587313621,0.7712670264713442,0.2766295707472178,3640,4426,411,8066,0.782172080337218,0.5441140740339033,0.9087912087912088,0.6780388612742883,0.0,0.806829268292683,0.9113270573944732,0.0,0.8547803617571059,0.7775618603446042,0.0,3640,4426,0,119,1.0,0.3333333333333333,0.0,0.0,1.0,0.0,0.0,1.0,0.0,0.0,1.0,0,0,119,292,0.18835616438356165,0.10566762728146013,0.0,0.0,0.18835616438356165,0.0,0.0,1.0,0.0,0.0,0.3170028818443804,0,0,292,8185,0.7853390348197923,0.631197864740087,0.9087912087912088,0.6780388612742883,1.0,0.806829268292683,0.9113270573944732,0.15025252525252525,0.8547803617571059,0.7775618603446042,0.26125137211855104,3640,4426,119,0.08343664765683115,0.4233576642335766,1.0912038814108445
simple_pc1_gm_gate_t254,score_dual,0.03,pc2__ge,-1.0634046292314407,190,8477,0.7647752742715583,0.627961151983308,0.9087912087912088,0.6780388612742883,0.4233576642335766,0.7739822180627047,0.8942193087008343,0.20543093270365997,0.8359868587313621,0.7712670264713442,0.2766295707472178,3640,4426,411,8066,0.782172080337218,0.5441140740339033,0.9087912087912088,0.6780388612742883,0.0,0.806829268292683,0.9113270573944732,0.0,0.8547803617571059,0.7775618603446042,0.0,3640,4426,0,119,1.0,0.3333333333333333,0.0,0.0,1.0,0.0,0.0,1.0,0.0,0.0,1.0,0,0,119,292,0.18835616438356165,0.10566762728146013,0.0,0.0,0.18835616438356165,0.0,0.0,1.0,0.0,0.0,0.3170028818443804,0,0,292,8185,0.7853390348197923,0.631197864740087,0.9087912087912088,0.6780388612742883,1.0,0.806829268292683,0.9113270573944732,0.15025252525252525,0.8547803617571059,0.7775618603446042,0.26125137211855104,3640,4426,119,0.08343664765683115,0.4233576642335766,1.0912038814108445
simple_pc1_gm_gate_t254,score_dual,0.03,pc2__ge,1.9185090159687288,190,8477,0.7647752742715583,0.627961151983308,0.9087912087912088,0.6780388612742883,0.4233576642335766,0.7739822180627047,0.8942193087008343,0.20543093270365997,0.8359868587313621,0.7712670264713442,0.2766295707472178,3640,4426,411,8066,0.782172080337218,0.5441140740339033,0.9087912087912088,0.6780388612742883,0.0,0.806829268292683,0.9113270573944732,0.0,0.8547803617571059,0.7775618603446042,0.0,3640,4426,0,119,1.0,0.3333333333333333,0.0,0.0,1.0,0.0,0.0,1.0,0.0,0.0,1.0,0,0,119,292,0.18835616438356165,0.10566762728146013,0.0,0.0,0.18835616438356165,0.0,0.0,1.0,0.0,0.0,0.3170028818443804,0,0,292,8185,0.7853390348197923,0.631197864740087,0.9087912087912088,0.6780388612742883,1.0,0.806829268292683,0.9113270573944732,0.15025252525252525,0.8547803617571059,0.7775618603446042,0.26125137211855104,3640,4426,119,0.08343664765683115,0.4233576642335766,1.0912038814108445
simple_pc1_gm_gate_t254,score_dual,0.03,qrs_visibility__le,0.2800807397384144,190,8477,0.7647752742715583,0.627961151983308,0.9087912087912088,0.6780388612742883,0.4233576642335766,0.7739822180627047,0.8942193087008343,0.20543093270365997,0.8359868587313621,0.7712670264713442,0.2766295707472178,3640,4426,411,8066,0.782172080337218,0.5441140740339033,0.9087912087912088,0.6780388612742883,0.0,0.806829268292683,0.9113270573944732,0.0,0.8547803617571059,0.7775618603446042,0.0,3640,4426,0,119,1.0,0.3333333333333333,0.0,0.0,1.0,0.0,0.0,1.0,0.0,0.0,1.0,0,0,119,292,0.18835616438356165,0.10566762728146013,0.0,0.0,0.18835616438356165,0.0,0.0,1.0,0.0,0.0,0.3170028818443804,0,0,292,8185,0.7853390348197923,0.631197864740087,0.9087912087912088,0.6780388612742883,1.0,0.806829268292683,0.9113270573944732,0.15025252525252525,0.8547803617571059,0.7775618603446042,0.26125137211855104,3640,4426,119,0.08343664765683115,0.4233576642335766,1.0912038814108445
simple_pc1_gm_gate_t254,score_dual,0.03,qrs_visibility__le,0.3732307518330272,190,8477,0.7647752742715583,0.627961151983308,0.9087912087912088,0.6780388612742883,0.4233576642335766,0.7739822180627047,0.8942193087008343,0.20543093270365997,0.8359868587313621,0.7712670264713442,0.2766295707472178,3640,4426,411,8066,0.782172080337218,0.5441140740339033,0.9087912087912088,0.6780388612742883,0.0,0.806829268292683,0.9113270573944732,0.0,0.8547803617571059,0.7775618603446042,0.0,3640,4426,0,119,1.0,0.3333333333333333,0.0,0.0,1.0,0.0,0.0,1.0,0.0,0.0,1.0,0,0,119,292,0.18835616438356165,0.10566762728146013,0.0,0.0,0.18835616438356165,0.0,0.0,1.0,0.0,0.0,0.3170028818443804,0,0,292,8185,0.7853390348197923,0.631197864740087,0.9087912087912088,0.6780388612742883,1.0,0.806829268292683,0.9113270573944732,0.15025252525252525,0.8547803617571059,0.7775618603446042,0.26125137211855104,3640,4426,119,0.08343664765683115,0.4233576642335766,1.0912038814108445
simple_pc1_gm_gate_t254,score_all_max,0.03,none,,190,8477,0.7647752742715583,0.627961151983308,0.9087912087912088,0.6780388612742883,0.4233576642335766,0.7739822180627047,0.8942193087008343,0.20543093270365997,0.8359868587313621,0.7712670264713442,0.2766295707472178,3640,4426,411,8066,0.782172080337218,0.5441140740339033,0.9087912087912088,0.6780388612742883,0.0,0.806829268292683,0.9113270573944732,0.0,0.8547803617571059,0.7775618603446042,0.0,3640,4426,0,119,1.0,0.3333333333333333,0.0,0.0,1.0,0.0,0.0,1.0,0.0,0.0,1.0,0,0,119,292,0.18835616438356165,0.10566762728146013,0.0,0.0,0.18835616438356165,0.0,0.0,1.0,0.0,0.0,0.3170028818443804,0,0,292,8185,0.7853390348197923,0.631197864740087,0.9087912087912088,0.6780388612742883,1.0,0.806829268292683,0.9113270573944732,0.15025252525252525,0.8547803617571059,0.7775618603446042,0.26125137211855104,3640,4426,119,0.08343664765683115,0.4233576642335766,1.0912038814108445
simple_pc1_gm_gate_t254,score_all_max,0.03,pc2__ge,-1.0634046292314407,190,8477,0.7647752742715583,0.627961151983308,0.9087912087912088,0.6780388612742883,0.4233576642335766,0.7739822180627047,0.8942193087008343,0.20543093270365997,0.8359868587313621,0.7712670264713442,0.2766295707472178,3640,4426,411,8066,0.782172080337218,0.5441140740339033,0.9087912087912088,0.6780388612742883,0.0,0.806829268292683,0.9113270573944732,0.0,0.8547803617571059,0.7775618603446042,0.0,3640,4426,0,119,1.0,0.3333333333333333,0.0,0.0,1.0,0.0,0.0,1.0,0.0,0.0,1.0,0,0,119,292,0.18835616438356165,0.10566762728146013,0.0,0.0,0.18835616438356165,0.0,0.0,1.0,0.0,0.0,0.3170028818443804,0,0,292,8185,0.7853390348197923,0.631197864740087,0.9087912087912088,0.6780388612742883,1.0,0.806829268292683,0.9113270573944732,0.15025252525252525,0.8547803617571059,0.7775618603446042,0.26125137211855104,3640,4426,119,0.08343664765683115,0.4233576642335766,1.0912038814108445
simple_pc1_gm_gate_t254,score_all_max,0.03,pc2__ge,1.9185090159687288,190,8477,0.7647752742715583,0.627961151983308,0.9087912087912088,0.6780388612742883,0.4233576642335766,0.7739822180627047,0.8942193087008343,0.20543093270365997,0.8359868587313621,0.7712670264713442,0.2766295707472178,3640,4426,411,8066,0.782172080337218,0.5441140740339033,0.9087912087912088,0.6780388612742883,0.0,0.806829268292683,0.9113270573944732,0.0,0.8547803617571059,0.7775618603446042,0.0,3640,4426,0,119,1.0,0.3333333333333333,0.0,0.0,1.0,0.0,0.0,1.0,0.0,0.0,1.0,0,0,119,292,0.18835616438356165,0.10566762728146013,0.0,0.0,0.18835616438356165,0.0,0.0,1.0,0.0,0.0,0.3170028818443804,0,0,292,8185,0.7853390348197923,0.631197864740087,0.9087912087912088,0.6780388612742883,1.0,0.806829268292683,0.9113270573944732,0.15025252525252525,0.8547803617571059,0.7775618603446042,0.26125137211855104,3640,4426,119,0.08343664765683115,0.4233576642335766,1.0912038814108445
simple_pc1_gm_gate_t254,score_all_max,0.03,qrs_visibility__le,0.2800807397384144,190,8477,0.7647752742715583,0.627961151983308,0.9087912087912088,0.6780388612742883,0.4233576642335766,0.7739822180627047,0.8942193087008343,0.20543093270365997,0.8359868587313621,0.7712670264713442,0.2766295707472178,3640,4426,411,8066,0.782172080337218,0.5441140740339033,0.9087912087912088,0.6780388612742883,0.0,0.806829268292683,0.9113270573944732,0.0,0.8547803617571059,0.7775618603446042,0.0,3640,4426,0,119,1.0,0.3333333333333333,0.0,0.0,1.0,0.0,0.0,1.0,0.0,0.0,1.0,0,0,119,292,0.18835616438356165,0.10566762728146013,0.0,0.0,0.18835616438356165,0.0,0.0,1.0,0.0,0.0,0.3170028818443804,0,0,292,8185,0.7853390348197923,0.631197864740087,0.9087912087912088,0.6780388612742883,1.0,0.806829268292683,0.9113270573944732,0.15025252525252525,0.8547803617571059,0.7775618603446042,0.26125137211855104,3640,4426,119,0.08343664765683115,0.4233576642335766,1.0912038814108445
simple_pc1_gm_gate_t254,score_all_max,0.03,qrs_visibility__le,0.3732307518330272,190,8477,0.7647752742715583,0.627961151983308,0.9087912087912088,0.6780388612742883,0.4233576642335766,0.7739822180627047,0.8942193087008343,0.20543093270365997,0.8359868587313621,0.7712670264713442,0.2766295707472178,3640,4426,411,8066,0.782172080337218,0.5441140740339033,0.9087912087912088,0.6780388612742883,0.0,0.806829268292683,0.9113270573944732,0.0,0.8547803617571059,0.7775618603446042,0.0,3640,4426,0,119,1.0,0.3333333333333333,0.0,0.0,1.0,0.0,0.0,1.0,0.0,0.0,1.0,0,0,119,292,0.18835616438356165,0.10566762728146013,0.0,0.0,0.18835616438356165,0.0,0.0,1.0,0.0,0.0,0.3170028818443804,0,0,292,8185,0.7853390348197923,0.631197864740087,0.9087912087912088,0.6780388612742883,1.0,0.806829268292683,0.9113270573944732,0.15025252525252525,0.8547803617571059,0.7775618603446042,0.26125137211855104,3640,4426,119,0.08343664765683115,0.4233576642335766,1.0912038814108445
simple_pc1_gm_gate_t254,score_core,0.03,none,,190,8477,0.7647752742715583,0.627961151983308,0.9087912087912088,0.6780388612742883,0.4233576642335766,0.7739822180627047,0.8942193087008343,0.20543093270365997,0.8359868587313621,0.7712670264713442,0.2766295707472178,3640,4426,411,8066,0.782172080337218,0.5441140740339033,0.9087912087912088,0.6780388612742883,0.0,0.806829268292683,0.9113270573944732,0.0,0.8547803617571059,0.7775618603446042,0.0,3640,4426,0,119,1.0,0.3333333333333333,0.0,0.0,1.0,0.0,0.0,1.0,0.0,0.0,1.0,0,0,119,292,0.18835616438356165,0.10566762728146013,0.0,0.0,0.18835616438356165,0.0,0.0,1.0,0.0,0.0,0.3170028818443804,0,0,292,8185,0.7853390348197923,0.631197864740087,0.9087912087912088,0.6780388612742883,1.0,0.806829268292683,0.9113270573944732,0.15025252525252525,0.8547803617571059,0.7775618603446042,0.26125137211855104,3640,4426,119,0.08343664765683115,0.4233576642335766,1.0912038814108445
simple_pc1_gm_gate_t254,score_core,0.03,pc2__ge,-1.0634046292314407,190,8477,0.7647752742715583,0.627961151983308,0.9087912087912088,0.6780388612742883,0.4233576642335766,0.7739822180627047,0.8942193087008343,0.20543093270365997,0.8359868587313621,0.7712670264713442,0.2766295707472178,3640,4426,411,8066,0.782172080337218,0.5441140740339033,0.9087912087912088,0.6780388612742883,0.0,0.806829268292683,0.9113270573944732,0.0,0.8547803617571059,0.7775618603446042,0.0,3640,4426,0,119,1.0,0.3333333333333333,0.0,0.0,1.0,0.0,0.0,1.0,0.0,0.0,1.0,0,0,119,292,0.18835616438356165,0.10566762728146013,0.0,0.0,0.18835616438356165,0.0,0.0,1.0,0.0,0.0,0.3170028818443804,0,0,292,8185,0.7853390348197923,0.631197864740087,0.9087912087912088,0.6780388612742883,1.0,0.806829268292683,0.9113270573944732,0.15025252525252525,0.8547803617571059,0.7775618603446042,0.26125137211855104,3640,4426,119,0.08343664765683115,0.4233576642335766,1.0912038814108445
simple_pc1_gm_gate_t254,score_core,0.03,pc2__ge,1.9185090159687288,190,8477,0.7647752742715583,0.627961151983308,0.9087912087912088,0.6780388612742883,0.4233576642335766,0.7739822180627047,0.8942193087008343,0.20543093270365997,0.8359868587313621,0.7712670264713442,0.2766295707472178,3640,4426,411,8066,0.782172080337218,0.5441140740339033,0.9087912087912088,0.6780388612742883,0.0,0.806829268292683,0.9113270573944732,0.0,0.8547803617571059,0.7775618603446042,0.0,3640,4426,0,119,1.0,0.3333333333333333,0.0,0.0,1.0,0.0,0.0,1.0,0.0,0.0,1.0,0,0,119,292,0.18835616438356165,0.10566762728146013,0.0,0.0,0.18835616438356165,0.0,0.0,1.0,0.0,0.0,0.3170028818443804,0,0,292,8185,0.7853390348197923,0.631197864740087,0.9087912087912088,0.6780388612742883,1.0,0.806829268292683,0.9113270573944732,0.15025252525252525,0.8547803617571059,0.7775618603446042,0.26125137211855104,3640,4426,119,0.08343664765683115,0.4233576642335766,1.0912038814108445
simple_pc1_gm_gate_t254,score_core,0.03,qrs_visibility__le,0.2800807397384144,190,8477,0.7647752742715583,0.627961151983308,0.9087912087912088,0.6780388612742883,0.4233576642335766,0.7739822180627047,0.8942193087008343,0.20543093270365997,0.8359868587313621,0.7712670264713442,0.2766295707472178,3640,4426,411,8066,0.782172080337218,0.5441140740339033,0.9087912087912088,0.6780388612742883,0.0,0.806829268292683,0.9113270573944732,0.0,0.8547803617571059,0.7775618603446042,0.0,3640,4426,0,119,1.0,0.3333333333333333,0.0,0.0,1.0,0.0,0.0,1.0,0.0,0.0,1.0,0,0,119,292,0.18835616438356165,0.10566762728146013,0.0,0.0,0.18835616438356165,0.0,0.0,1.0,0.0,0.0,0.3170028818443804,0,0,292,8185,0.7853390348197923,0.631197864740087,0.9087912087912088,0.6780388612742883,1.0,0.806829268292683,0.9113270573944732,0.15025252525252525,0.8547803617571059,0.7775618603446042,0.26125137211855104,3640,4426,119,0.08343664765683115,0.4233576642335766,1.0912038814108445
simple_pc1_gm_gate_t254,score_core,0.03,qrs_visibility__le,0.3732307518330272,190,8477,0.7647752742715583,0.627961151983308,0.9087912087912088,0.6780388612742883,0.4233576642335766,0.7739822180627047,0.8942193087008343,0.20543093270365997,0.8359868587313621,0.7712670264713442,0.2766295707472178,3640,4426,411,8066,0.782172080337218,0.5441140740339033,0.9087912087912088,0.6780388612742883,0.0,0.806829268292683,0.9113270573944732,0.0,0.8547803617571059,0.7775618603446042,0.0,3640,4426,0,119,1.0,0.3333333333333333,0.0,0.0,1.0,0.0,0.0,1.0,0.0,0.0,1.0,0,0,119,292,0.18835616438356165,0.10566762728146013,0.0,0.0,0.18835616438356165,0.0,0.0,1.0,0.0,0.0,0.3170028818443804,0,0,292,8185,0.7853390348197923,0.631197864740087,0.9087912087912088,0.6780388612742883,1.0,0.806829268292683,0.9113270573944732,0.15025252525252525,0.8547803617571059,0.7775618603446042,0.26125137211855104,3640,4426,119,0.08343664765683115,0.4233576642335766,1.0912038814108445
simple_pc1_gm_gate_t254,score_outlier,0.03,none,,190,8477,0.7647752742715583,0.627961151983308,0.9087912087912088,0.6780388612742883,0.4233576642335766,0.7739822180627047,0.8942193087008343,0.20543093270365997,0.8359868587313621,0.7712670264713442,0.2766295707472178,3640,4426,411,8066,0.782172080337218,0.5441140740339033,0.9087912087912088,0.6780388612742883,0.0,0.806829268292683,0.9113270573944732,0.0,0.8547803617571059,0.7775618603446042,0.0,3640,4426,0,119,1.0,0.3333333333333333,0.0,0.0,1.0,0.0,0.0,1.0,0.0,0.0,1.0,0,0,119,292,0.18835616438356165,0.10566762728146013,0.0,0.0,0.18835616438356165,0.0,0.0,1.0,0.0,0.0,0.3170028818443804,0,0,292,8185,0.7853390348197923,0.631197864740087,0.9087912087912088,0.6780388612742883,1.0,0.806829268292683,0.9113270573944732,0.15025252525252525,0.8547803617571059,0.7775618603446042,0.26125137211855104,3640,4426,119,0.08343664765683115,0.4233576642335766,1.0912038814108445
simple_pc1_gm_gate_t254,score_outlier,0.03,pc2__ge,-1.0634046292314407,190,8477,0.7647752742715583,0.627961151983308,0.9087912087912088,0.6780388612742883,0.4233576642335766,0.7739822180627047,0.8942193087008343,0.20543093270365997,0.8359868587313621,0.7712670264713442,0.2766295707472178,3640,4426,411,8066,0.782172080337218,0.5441140740339033,0.9087912087912088,0.6780388612742883,0.0,0.806829268292683,0.9113270573944732,0.0,0.8547803617571059,0.7775618603446042,0.0,3640,4426,0,119,1.0,0.3333333333333333,0.0,0.0,1.0,0.0,0.0,1.0,0.0,0.0,1.0,0,0,119,292,0.18835616438356165,0.10566762728146013,0.0,0.0,0.18835616438356165,0.0,0.0,1.0,0.0,0.0,0.3170028818443804,0,0,292,8185,0.7853390348197923,0.631197864740087,0.9087912087912088,0.6780388612742883,1.0,0.806829268292683,0.9113270573944732,0.15025252525252525,0.8547803617571059,0.7775618603446042,0.26125137211855104,3640,4426,119,0.08343664765683115,0.4233576642335766,1.0912038814108445
simple_pc1_gm_gate_t254,score_outlier,0.03,pc2__ge,1.9185090159687288,190,8477,0.7647752742715583,0.627961151983308,0.9087912087912088,0.6780388612742883,0.4233576642335766,0.7739822180627047,0.8942193087008343,0.20543093270365997,0.8359868587313621,0.7712670264713442,0.2766295707472178,3640,4426,411,8066,0.782172080337218,0.5441140740339033,0.9087912087912088,0.6780388612742883,0.0,0.806829268292683,0.9113270573944732,0.0,0.8547803617571059,0.7775618603446042,0.0,3640,4426,0,119,1.0,0.3333333333333333,0.0,0.0,1.0,0.0,0.0,1.0,0.0,0.0,1.0,0,0,119,292,0.18835616438356165,0.10566762728146013,0.0,0.0,0.18835616438356165,0.0,0.0,1.0,0.0,0.0,0.3170028818443804,0,0,292,8185,0.7853390348197923,0.631197864740087,0.9087912087912088,0.6780388612742883,1.0,0.806829268292683,0.9113270573944732,0.15025252525252525,0.8547803617571059,0.7775618603446042,0.26125137211855104,3640,4426,119,0.08343664765683115,0.4233576642335766,1.0912038814108445
simple_pc1_gm_gate_t254,score_outlier,0.03,qrs_visibility__le,0.2800807397384144,190,8477,0.7647752742715583,0.627961151983308,0.9087912087912088,0.6780388612742883,0.4233576642335766,0.7739822180627047,0.8942193087008343,0.20543093270365997,0.8359868587313621,0.7712670264713442,0.2766295707472178,3640,4426,411,8066,0.782172080337218,0.5441140740339033,0.9087912087912088,0.6780388612742883,0.0,0.806829268292683,0.9113270573944732,0.0,0.8547803617571059,0.7775618603446042,0.0,3640,4426,0,119,1.0,0.3333333333333333,0.0,0.0,1.0,0.0,0.0,1.0,0.0,0.0,1.0,0,0,119,292,0.18835616438356165,0.10566762728146013,0.0,0.0,0.18835616438356165,0.0,0.0,1.0,0.0,0.0,0.3170028818443804,0,0,292,8185,0.7853390348197923,0.631197864740087,0.9087912087912088,0.6780388612742883,1.0,0.806829268292683,0.9113270573944732,0.15025252525252525,0.8547803617571059,0.7775618603446042,0.26125137211855104,3640,4426,119,0.08343664765683115,0.4233576642335766,1.0912038814108445
simple_pc1_gm_gate_t254,score_outlier,0.03,qrs_visibility__le,0.3732307518330272,190,8477,0.7647752742715583,0.627961151983308,0.9087912087912088,0.6780388612742883,0.4233576642335766,0.7739822180627047,0.8942193087008343,0.20543093270365997,0.8359868587313621,0.7712670264713442,0.2766295707472178,3640,4426,411,8066,0.782172080337218,0.5441140740339033,0.9087912087912088,0.6780388612742883,0.0,0.806829268292683,0.9113270573944732,0.0,0.8547803617571059,0.7775618603446042,0.0,3640,4426,0,119,1.0,0.3333333333333333,0.0,0.0,1.0,0.0,0.0,1.0,0.0,0.0,1.0,0,0,119,292,0.18835616438356165,0.10566762728146013,0.0,0.0,0.18835616438356165,0.0,0.0,1.0,0.0,0.0,0.3170028818443804,0,0,292,8185,0.7853390348197923,0.631197864740087,0.9087912087912088,0.6780388612742883,1.0,0.806829268292683,0.9113270573944732,0.15025252525252525,0.8547803617571059,0.7775618603446042,0.26125137211855104,3640,4426,119,0.08343664765683115,0.4233576642335766,1.0912038814108445
simple_pc1_gm_gate_t254,score_dual,0.02,pc3__le,3.281193089810729,217,8477,0.7633596791317683,0.6263657688091755,0.9076923076923077,0.676005422503389,0.4257907542579075,0.7763157894736842,0.893934867045115,0.20022883295194507,0.8368794326241135,0.769844332947382,0.2723735408560311,3640,4426,411,8066,0.7805603768906522,0.5439203139352927,0.9076923076923077,0.676005422503389,0.0,0.8092089150134705,0.9110840438489647,0.0,0.8556260520523112,0.7761348897535668,0.0,3640,4426,0,119,1.0,0.3333333333333333,0.0,0.0,1.0,0.0,0.0,1.0,0.0,0.0,1.0,0,0,119,292,0.1917808219178082,0.10727969348659004,0.0,0.0,0.1917808219178082,0.0,0.0,1.0,0.0,0.0,0.3218390804597701,0,0,292,8185,0.7837507635919365,0.6285876920925321,0.9076923076923077,0.676005422503389,1.0,0.8092089150134705,0.9110840438489647,0.14547677261613692,0.8556260520523112,0.7761348897535668,0.25400213447171827,3640,4426,119,0.08666005454996281,0.4257907542579075,1.091153566409707
simple_pc1_gm_gate_t254,score_all_max,0.02,pc3__le,3.281193089810729,217,8477,0.7633596791317683,0.6263657688091755,0.9076923076923077,0.676005422503389,0.4257907542579075,0.7763157894736842,0.893934867045115,0.20022883295194507,0.8368794326241135,0.769844332947382,0.2723735408560311,3640,4426,411,8066,0.7805603768906522,0.5439203139352927,0.9076923076923077,0.676005422503389,0.0,0.8092089150134705,0.9110840438489647,0.0,0.8556260520523112,0.7761348897535668,0.0,3640,4426,0,119,1.0,0.3333333333333333,0.0,0.0,1.0,0.0,0.0,1.0,0.0,0.0,1.0,0,0,119,292,0.1917808219178082,0.10727969348659004,0.0,0.0,0.1917808219178082,0.0,0.0,1.0,0.0,0.0,0.3218390804597701,0,0,292,8185,0.7837507635919365,0.6285876920925321,0.9076923076923077,0.676005422503389,1.0,0.8092089150134705,0.9110840438489647,0.14547677261613692,0.8556260520523112,0.7761348897535668,0.25400213447171827,3640,4426,119,0.08666005454996281,0.4257907542579075,1.091153566409707
simple_pc1_gm_gate_t254,score_core,0.02,pc3__le,3.281193089810729,217,8477,0.7633596791317683,0.6263657688091755,0.9076923076923077,0.676005422503389,0.4257907542579075,0.7763157894736842,0.893934867045115,0.20022883295194507,0.8368794326241135,0.769844332947382,0.2723735408560311,3640,4426,411,8066,0.7805603768906522,0.5439203139352927,0.9076923076923077,0.676005422503389,0.0,0.8092089150134705,0.9110840438489647,0.0,0.8556260520523112,0.7761348897535668,0.0,3640,4426,0,119,1.0,0.3333333333333333,0.0,0.0,1.0,0.0,0.0,1.0,0.0,0.0,1.0,0,0,119,292,0.1917808219178082,0.10727969348659004,0.0,0.0,0.1917808219178082,0.0,0.0,1.0,0.0,0.0,0.3218390804597701,0,0,292,8185,0.7837507635919365,0.6285876920925321,0.9076923076923077,0.676005422503389,1.0,0.8092089150134705,0.9110840438489647,0.14547677261613692,0.8556260520523112,0.7761348897535668,0.25400213447171827,3640,4426,119,0.08666005454996281,0.4257907542579075,1.091153566409707
simple_pc1_gm_gate_t254,score_outlier,0.02,pc3__le,3.281193089810729,217,8477,0.7633596791317683,0.6263657688091755,0.9076923076923077,0.676005422503389,0.4257907542579075,0.7763157894736842,0.893934867045115,0.20022883295194507,0.8368794326241135,0.769844332947382,0.2723735408560311,3640,4426,411,8066,0.7805603768906522,0.5439203139352927,0.9076923076923077,0.676005422503389,0.0,0.8092089150134705,0.9110840438489647,0.0,0.8556260520523112,0.7761348897535668,0.0,3640,4426,0,119,1.0,0.3333333333333333,0.0,0.0,1.0,0.0,0.0,1.0,0.0,0.0,1.0,0,0,119,292,0.1917808219178082,0.10727969348659004,0.0,0.0,0.1917808219178082,0.0,0.0,1.0,0.0,0.0,0.3218390804597701,0,0,292,8185,0.7837507635919365,0.6285876920925321,0.9076923076923077,0.676005422503389,1.0,0.8092089150134705,0.9110840438489647,0.14547677261613692,0.8556260520523112,0.7761348897535668,0.25400213447171827,3640,4426,119,0.08666005454996281,0.4257907542579075,1.091153566409707
simple_pc1_gm_gate_t254,score_dual,0.05,pc1__le,-0.7734152380448813,150,8477,0.7672525657661908,0.6305016317167628,0.9093406593406593,0.6827835517397198,0.41849148418491483,0.7713819622465625,0.894347440071027,0.21313506815365552,0.8346992813012231,0.774375400384369,0.2824302134646962,3640,4426,411,8066,0.7850235556657575,0.544767089312901,0.9093406593406593,0.6827835517397198,0.0,0.8039834831187758,0.9118889559444779,0.0,0.8534227149671265,0.7808785529715763,0.0,3640,4426,0,119,1.0,0.3333333333333333,0.0,0.0,1.0,0.0,0.0,1.0,0.0,0.0,1.0,0,0,119,292,0.1815068493150685,0.10241545893719807,0.0,0.0,0.1815068493150685,0.0,0.0,1.0,0.0,0.0,0.3072463768115942,0,0,292,8185,0.7881490531459988,0.6356414688470743,0.9093406593406593,0.6827835517397198,1.0,0.8039834831187758,0.9118889559444779,0.15782493368700265,0.8534227149671265,0.7808785529715763,0.27262313860252,3640,4426,119,0.07872551450533102,0.41849148418491483,1.0909506126281712
simple_pc1_gm_gate_t254,score_all_max,0.05,pc1__le,-0.7734152380448813,150,8477,0.7672525657661908,0.6305016317167628,0.9093406593406593,0.6827835517397198,0.41849148418491483,0.7713819622465625,0.894347440071027,0.21313506815365552,0.8346992813012231,0.774375400384369,0.2824302134646962,3640,4426,411,8066,0.7850235556657575,0.544767089312901,0.9093406593406593,0.6827835517397198,0.0,0.8039834831187758,0.9118889559444779,0.0,0.8534227149671265,0.7808785529715763,0.0,3640,4426,0,119,1.0,0.3333333333333333,0.0,0.0,1.0,0.0,0.0,1.0,0.0,0.0,1.0,0,0,119,292,0.1815068493150685,0.10241545893719807,0.0,0.0,0.1815068493150685,0.0,0.0,1.0,0.0,0.0,0.3072463768115942,0,0,292,8185,0.7881490531459988,0.6356414688470743,0.9093406593406593,0.6827835517397198,1.0,0.8039834831187758,0.9118889559444779,0.15782493368700265,0.8534227149671265,0.7808785529715763,0.27262313860252,3640,4426,119,0.07872551450533102,0.41849148418491483,1.0909506126281712
simple_pc1_gm_gate_t254,score_core,0.05,pc1__le,-0.7734152380448813,150,8477,0.7672525657661908,0.6305016317167628,0.9093406593406593,0.6827835517397198,0.41849148418491483,0.7713819622465625,0.894347440071027,0.21313506815365552,0.8346992813012231,0.774375400384369,0.2824302134646962,3640,4426,411,8066,0.7850235556657575,0.544767089312901,0.9093406593406593,0.6827835517397198,0.0,0.8039834831187758,0.9118889559444779,0.0,0.8534227149671265,0.7808785529715763,0.0,3640,4426,0,119,1.0,0.3333333333333333,0.0,0.0,1.0,0.0,0.0,1.0,0.0,0.0,1.0,0,0,119,292,0.1815068493150685,0.10241545893719807,0.0,0.0,0.1815068493150685,0.0,0.0,1.0,0.0,0.0,0.3072463768115942,0,0,292,8185,0.7881490531459988,0.6356414688470743,0.9093406593406593,0.6827835517397198,1.0,0.8039834831187758,0.9118889559444779,0.15782493368700265,0.8534227149671265,0.7808785529715763,0.27262313860252,3640,4426,119,0.07872551450533102,0.41849148418491483,1.0909506126281712
simple_pc1_gm_gate_t254,score_outlier,0.05,pc1__le,-0.7734152380448813,150,8477,0.7672525657661908,0.6305016317167628,0.9093406593406593,0.6827835517397198,0.41849148418491483,0.7713819622465625,0.894347440071027,0.21313506815365552,0.8346992813012231,0.774375400384369,0.2824302134646962,3640,4426,411,8066,0.7850235556657575,0.544767089312901,0.9093406593406593,0.6827835517397198,0.0,0.8039834831187758,0.9118889559444779,0.0,0.8534227149671265,0.7808785529715763,0.0,3640,4426,0,119,1.0,0.3333333333333333,0.0,0.0,1.0,0.0,0.0,1.0,0.0,0.0,1.0,0,0,119,292,0.1815068493150685,0.10241545893719807,0.0,0.0,0.1815068493150685,0.0,0.0,1.0,0.0,0.0,0.3072463768115942,0,0,292,8185,0.7881490531459988,0.6356414688470743,0.9093406593406593,0.6827835517397198,1.0,0.8039834831187758,0.9118889559444779,0.15782493368700265,0.8534227149671265,0.7808785529715763,0.27262313860252,3640,4426,119,0.07872551450533102,0.41849148418491483,1.0909506126281712
simple_pc1_gm_gate_t254,score_dual,0.02,none,,219,8477,0.7631237466084699,0.6261191452943659,0.9076923076923077,0.675553547220967,0.4257907542579075,0.7763157894736842,0.8938714499252616,0.1997716894977169,0.8368794326241135,0.7695277313087119,0.27195027195027194,3640,4426,411,8066,0.7803124225142574,0.5438144615645742,0.9076923076923077,0.675553547220967,0.0,0.8092089150134705,0.91102985984156,0.0,0.8556260520523112,0.7758173326414115,0.0,3640,4426,0,119,1.0,0.3333333333333333,0.0,0.0,1.0,0.0,0.0,1.0,0.0,0.0,1.0,0,0,119,292,0.1917808219178082,0.10727969348659004,0.0,0.0,0.1917808219178082,0.0,0.0,1.0,0.0,0.0,0.3218390804597701,0,0,292,8185,0.7835064141722663,0.6283015045180709,0.9076923076923077,0.675553547220967,1.0,0.8092089150134705,0.91102985984156,0.14512195121951219,0.8556260520523112,0.7758173326414115,0.2534611288604899,3640,4426,119,0.08690800892635756,0.4257907542579075,1.0909176338864086
simple_pc1_gm_gate_t254,score_dual,0.02,pc2__ge,-1.0634046292314407,219,8477,0.7631237466084699,0.6261191452943659,0.9076923076923077,0.675553547220967,0.4257907542579075,0.7763157894736842,0.8938714499252616,0.1997716894977169,0.8368794326241135,0.7695277313087119,0.27195027195027194,3640,4426,411,8066,0.7803124225142574,0.5438144615645742,0.9076923076923077,0.675553547220967,0.0,0.8092089150134705,0.91102985984156,0.0,0.8556260520523112,0.7758173326414115,0.0,3640,4426,0,119,1.0,0.3333333333333333,0.0,0.0,1.0,0.0,0.0,1.0,0.0,0.0,1.0,0,0,119,292,0.1917808219178082,0.10727969348659004,0.0,0.0,0.1917808219178082,0.0,0.0,1.0,0.0,0.0,0.3218390804597701,0,0,292,8185,0.7835064141722663,0.6283015045180709,0.9076923076923077,0.675553547220967,1.0,0.8092089150134705,0.91102985984156,0.14512195121951219,0.8556260520523112,0.7758173326414115,0.2534611288604899,3640,4426,119,0.08690800892635756,0.4257907542579075,1.0909176338864086
simple_pc1_gm_gate_t254,score_dual,0.02,pc2__ge,1.9185090159687288,219,8477,0.7631237466084699,0.6261191452943659,0.9076923076923077,0.675553547220967,0.4257907542579075,0.7763157894736842,0.8938714499252616,0.1997716894977169,0.8368794326241135,0.7695277313087119,0.27195027195027194,3640,4426,411,8066,0.7803124225142574,0.5438144615645742,0.9076923076923077,0.675553547220967,0.0,0.8092089150134705,0.91102985984156,0.0,0.8556260520523112,0.7758173326414115,0.0,3640,4426,0,119,1.0,0.3333333333333333,0.0,0.0,1.0,0.0,0.0,1.0,0.0,0.0,1.0,0,0,119,292,0.1917808219178082,0.10727969348659004,0.0,0.0,0.1917808219178082,0.0,0.0,1.0,0.0,0.0,0.3218390804597701,0,0,292,8185,0.7835064141722663,0.6283015045180709,0.9076923076923077,0.675553547220967,1.0,0.8092089150134705,0.91102985984156,0.14512195121951219,0.8556260520523112,0.7758173326414115,0.2534611288604899,3640,4426,119,0.08690800892635756,0.4257907542579075,1.0909176338864086
simple_pc1_gm_gate_t254,score_dual,0.02,qrs_visibility__le,0.2800807397384144,219,8477,0.7631237466084699,0.6261191452943659,0.9076923076923077,0.675553547220967,0.4257907542579075,0.7763157894736842,0.8938714499252616,0.1997716894977169,0.8368794326241135,0.7695277313087119,0.27195027195027194,3640,4426,411,8066,0.7803124225142574,0.5438144615645742,0.9076923076923077,0.675553547220967,0.0,0.8092089150134705,0.91102985984156,0.0,0.8556260520523112,0.7758173326414115,0.0,3640,4426,0,119,1.0,0.3333333333333333,0.0,0.0,1.0,0.0,0.0,1.0,0.0,0.0,1.0,0,0,119,292,0.1917808219178082,0.10727969348659004,0.0,0.0,0.1917808219178082,0.0,0.0,1.0,0.0,0.0,0.3218390804597701,0,0,292,8185,0.7835064141722663,0.6283015045180709,0.9076923076923077,0.675553547220967,1.0,0.8092089150134705,0.91102985984156,0.14512195121951219,0.8556260520523112,0.7758173326414115,0.2534611288604899,3640,4426,119,0.08690800892635756,0.4257907542579075,1.0909176338864086
simple_pc1_gm_gate_t254,score_dual,0.02,qrs_visibility__le,0.3732307518330272,219,8477,0.7631237466084699,0.6261191452943659,0.9076923076923077,0.675553547220967,0.4257907542579075,0.7763157894736842,0.8938714499252616,0.1997716894977169,0.8368794326241135,0.7695277313087119,0.27195027195027194,3640,4426,411,8066,0.7803124225142574,0.5438144615645742,0.9076923076923077,0.675553547220967,0.0,0.8092089150134705,0.91102985984156,0.0,0.8556260520523112,0.7758173326414115,0.0,3640,4426,0,119,1.0,0.3333333333333333,0.0,0.0,1.0,0.0,0.0,1.0,0.0,0.0,1.0,0,0,119,292,0.1917808219178082,0.10727969348659004,0.0,0.0,0.1917808219178082,0.0,0.0,1.0,0.0,0.0,0.3218390804597701,0,0,292,8185,0.7835064141722663,0.6283015045180709,0.9076923076923077,0.675553547220967,1.0,0.8092089150134705,0.91102985984156,0.14512195121951219,0.8556260520523112,0.7758173326414115,0.2534611288604899,3640,4426,119,0.08690800892635756,0.4257907542579075,1.0909176338864086
