base_mode,score_col,score_threshold,gate,gate_threshold,changed_to_bad,test_all_n,test_all_acc,test_all_macro_f1,test_all_good_recall,test_all_medium_recall,test_all_bad_recall,test_all_good_precision,test_all_medium_precision,test_all_bad_precision,test_all_good_f1,test_all_medium_f1,test_all_bad_f1,test_all_support_good,test_all_support_medium,test_all_support_bad,gm_only_n,gm_only_acc,gm_only_macro_f1,gm_only_good_recall,gm_only_medium_recall,gm_only_bad_recall,gm_only_good_precision,gm_only_medium_precision,gm_only_bad_precision,gm_only_good_f1,gm_only_medium_f1,gm_only_bad_f1,gm_only_support_good,gm_only_support_medium,gm_only_support_bad,bad_core_n,bad_core_acc,bad_core_macro_f1,bad_core_good_recall,bad_core_medium_recall,bad_core_bad_recall,bad_core_good_precision,bad_core_medium_precision,bad_core_bad_precision,bad_core_good_f1,bad_core_medium_f1,bad_core_bad_f1,bad_core_support_good,bad_core_support_medium,bad_core_support_bad,bad_outlier_n,bad_outlier_acc,bad_outlier_macro_f1,bad_outlier_good_recall,bad_outlier_medium_recall,bad_outlier_bad_recall,bad_outlier_good_precision,bad_outlier_medium_precision,bad_outlier_bad_precision,bad_outlier_good_f1,bad_outlier_medium_f1,bad_outlier_bad_f1,bad_outlier_support_good,bad_outlier_support_medium,bad_outlier_support_bad,drop_bad_outlier_n,drop_bad_outlier_acc,drop_bad_outlier_macro_f1,drop_bad_outlier_good_recall,drop_bad_outlier_medium_recall,drop_bad_outlier_bad_recall,drop_bad_outlier_good_precision,drop_bad_outlier_medium_precision,drop_bad_outlier_bad_precision,drop_bad_outlier_good_f1,drop_bad_outlier_medium_f1,drop_bad_outlier_bad_f1,drop_bad_outlier_support_good,drop_bad_outlier_support_medium,drop_bad_outlier_support_bad,gm_false_bad_rate,bad_caught_rate,balanced_score
simple_pc1_gm_gate_t254,score_dual,0.01,pc3__le,2.1506591515994145,242,8477,0.7686681609059809,0.628147166465214,0.9123626373626373,0.6852688657930411,0.39416058394160586,0.770891364902507,0.8938992042440318,0.20876288659793815,0.8356819325616507,0.7758025322931321,0.2729570345408593,3640,4426,411,8066,0.7877510538060997,0.5459217089022117,0.9123626373626373,0.6852688657930411,0.0,0.8047007511509571,0.9121804511278195,0.0,0.8551564310544612,0.782608695652174,0.0,3640,4426,0,119,1.0,0.3333333333333333,0.0,0.0,1.0,0.0,0.0,1.0,0.0,0.0,1.0,0,0,119,292,0.14726027397260275,0.08557213930348258,0.0,0.0,0.14726027397260275,0.0,0.0,1.0,0.0,0.0,0.25671641791044775,0,0,292,8185,0.7908368967623702,0.6390359499037767,0.9123626373626373,0.6852688657930411,1.0,0.8047007511509571,0.9121804511278195,0.16234652114597545,0.8551564310544612,0.782608695652174,0.2793427230046948,3640,4426,119,0.07612199355318622,0.39416058394160586,1.0787134063814334
simple_pc1_gm_gate_t254,score_all_max,0.01,pc3__le,2.1506591515994145,242,8477,0.7686681609059809,0.628147166465214,0.9123626373626373,0.6852688657930411,0.39416058394160586,0.770891364902507,0.8938992042440318,0.20876288659793815,0.8356819325616507,0.7758025322931321,0.2729570345408593,3640,4426,411,8066,0.7877510538060997,0.5459217089022117,0.9123626373626373,0.6852688657930411,0.0,0.8047007511509571,0.9121804511278195,0.0,0.8551564310544612,0.782608695652174,0.0,3640,4426,0,119,1.0,0.3333333333333333,0.0,0.0,1.0,0.0,0.0,1.0,0.0,0.0,1.0,0,0,119,292,0.14726027397260275,0.08557213930348258,0.0,0.0,0.14726027397260275,0.0,0.0,1.0,0.0,0.0,0.25671641791044775,0,0,292,8185,0.7908368967623702,0.6390359499037767,0.9123626373626373,0.6852688657930411,1.0,0.8047007511509571,0.9121804511278195,0.16234652114597545,0.8551564310544612,0.782608695652174,0.2793427230046948,3640,4426,119,0.07612199355318622,0.39416058394160586,1.0787134063814334
simple_pc1_gm_gate_t254,score_core,0.01,pc3__le,2.1506591515994145,242,8477,0.7686681609059809,0.628147166465214,0.9123626373626373,0.6852688657930411,0.39416058394160586,0.770891364902507,0.8938992042440318,0.20876288659793815,0.8356819325616507,0.7758025322931321,0.2729570345408593,3640,4426,411,8066,0.7877510538060997,0.5459217089022117,0.9123626373626373,0.6852688657930411,0.0,0.8047007511509571,0.9121804511278195,0.0,0.8551564310544612,0.782608695652174,0.0,3640,4426,0,119,1.0,0.3333333333333333,0.0,0.0,1.0,0.0,0.0,1.0,0.0,0.0,1.0,0,0,119,292,0.14726027397260275,0.08557213930348258,0.0,0.0,0.14726027397260275,0.0,0.0,1.0,0.0,0.0,0.25671641791044775,0,0,292,8185,0.7908368967623702,0.6390359499037767,0.9123626373626373,0.6852688657930411,1.0,0.8047007511509571,0.9121804511278195,0.16234652114597545,0.8551564310544612,0.782608695652174,0.2793427230046948,3640,4426,119,0.07612199355318622,0.39416058394160586,1.0787134063814334
simple_pc1_gm_gate_t254,score_outlier,0.01,pc3__le,2.1506591515994145,242,8477,0.7686681609059809,0.628147166465214,0.9123626373626373,0.6852688657930411,0.39416058394160586,0.770891364902507,0.8938992042440318,0.20876288659793815,0.8356819325616507,0.7758025322931321,0.2729570345408593,3640,4426,411,8066,0.7877510538060997,0.5459217089022117,0.9123626373626373,0.6852688657930411,0.0,0.8047007511509571,0.9121804511278195,0.0,0.8551564310544612,0.782608695652174,0.0,3640,4426,0,119,1.0,0.3333333333333333,0.0,0.0,1.0,0.0,0.0,1.0,0.0,0.0,1.0,0,0,119,292,0.14726027397260275,0.08557213930348258,0.0,0.0,0.14726027397260275,0.0,0.0,1.0,0.0,0.0,0.25671641791044775,0,0,292,8185,0.7908368967623702,0.6390359499037767,0.9123626373626373,0.6852688657930411,1.0,0.8047007511509571,0.9121804511278195,0.16234652114597545,0.8551564310544612,0.782608695652174,0.2793427230046948,3640,4426,119,0.07612199355318622,0.39416058394160586,1.0787134063814334
simple_pc1_gm_gate_t254,score_dual,0.01,pc3__le,3.281193089810729,271,8477,0.7653651055798042,0.6245457862239103,0.9123626373626373,0.6789426118391324,0.39416058394160586,0.7710703505920594,0.8930163447251115,0.20124223602484473,0.8357870894677236,0.7714029007829547,0.26644736842105265,3640,4426,411,8066,0.7842796925365733,0.5444871828089758,0.9123626373626373,0.6789426118391324,0.0,0.8048957828405235,0.9114346375492872,0.0,0.8552665464846768,0.7781950019422504,0.0,3640,4426,0,119,1.0,0.3333333333333333,0.0,0.0,1.0,0.0,0.0,1.0,0.0,0.0,1.0,0,0,119,292,0.14726027397260275,0.08557213930348258,0.0,0.0,0.14726027397260275,0.0,0.0,1.0,0.0,0.0,0.25671641791044775,0,0,292,8185,0.7874160048869884,0.6345363693394336,0.9123626373626373,0.6789426118391324,1.0,0.8048957828405235,0.9114346375492872,0.15616797900262466,0.8552665464846768,0.7781950019422504,0.27014755959137343,3640,4426,119,0.07971733201091,0.39416058394160586,1.0754103510552566
simple_pc1_gm_gate_t254,score_all_max,0.01,pc3__le,3.281193089810729,271,8477,0.7653651055798042,0.6245457862239103,0.9123626373626373,0.6789426118391324,0.39416058394160586,0.7710703505920594,0.8930163447251115,0.20124223602484473,0.8357870894677236,0.7714029007829547,0.26644736842105265,3640,4426,411,8066,0.7842796925365733,0.5444871828089758,0.9123626373626373,0.6789426118391324,0.0,0.8048957828405235,0.9114346375492872,0.0,0.8552665464846768,0.7781950019422504,0.0,3640,4426,0,119,1.0,0.3333333333333333,0.0,0.0,1.0,0.0,0.0,1.0,0.0,0.0,1.0,0,0,119,292,0.14726027397260275,0.08557213930348258,0.0,0.0,0.14726027397260275,0.0,0.0,1.0,0.0,0.0,0.25671641791044775,0,0,292,8185,0.7874160048869884,0.6345363693394336,0.9123626373626373,0.6789426118391324,1.0,0.8048957828405235,0.9114346375492872,0.15616797900262466,0.8552665464846768,0.7781950019422504,0.27014755959137343,3640,4426,119,0.07971733201091,0.39416058394160586,1.0754103510552566
simple_pc1_gm_gate_t254,score_core,0.01,pc3__le,3.281193089810729,271,8477,0.7653651055798042,0.6245457862239103,0.9123626373626373,0.6789426118391324,0.39416058394160586,0.7710703505920594,0.8930163447251115,0.20124223602484473,0.8357870894677236,0.7714029007829547,0.26644736842105265,3640,4426,411,8066,0.7842796925365733,0.5444871828089758,0.9123626373626373,0.6789426118391324,0.0,0.8048957828405235,0.9114346375492872,0.0,0.8552665464846768,0.7781950019422504,0.0,3640,4426,0,119,1.0,0.3333333333333333,0.0,0.0,1.0,0.0,0.0,1.0,0.0,0.0,1.0,0,0,119,292,0.14726027397260275,0.08557213930348258,0.0,0.0,0.14726027397260275,0.0,0.0,1.0,0.0,0.0,0.25671641791044775,0,0,292,8185,0.7874160048869884,0.6345363693394336,0.9123626373626373,0.6789426118391324,1.0,0.8048957828405235,0.9114346375492872,0.15616797900262466,0.8552665464846768,0.7781950019422504,0.27014755959137343,3640,4426,119,0.07971733201091,0.39416058394160586,1.0754103510552566
simple_pc1_gm_gate_t254,score_outlier,0.01,pc3__le,3.281193089810729,271,8477,0.7653651055798042,0.6245457862239103,0.9123626373626373,0.6789426118391324,0.39416058394160586,0.7710703505920594,0.8930163447251115,0.20124223602484473,0.8357870894677236,0.7714029007829547,0.26644736842105265,3640,4426,411,8066,0.7842796925365733,0.5444871828089758,0.9123626373626373,0.6789426118391324,0.0,0.8048957828405235,0.9114346375492872,0.0,0.8552665464846768,0.7781950019422504,0.0,3640,4426,0,119,1.0,0.3333333333333333,0.0,0.0,1.0,0.0,0.0,1.0,0.0,0.0,1.0,0,0,119,292,0.14726027397260275,0.08557213930348258,0.0,0.0,0.14726027397260275,0.0,0.0,1.0,0.0,0.0,0.25671641791044775,0,0,292,8185,0.7874160048869884,0.6345363693394336,0.9123626373626373,0.6789426118391324,1.0,0.8048957828405235,0.9114346375492872,0.15616797900262466,0.8552665464846768,0.7781950019422504,0.27014755959137343,3640,4426,119,0.07971733201091,0.39416058394160586,1.0754103510552566
simple_pc1_gm_gate_t254,score_dual,0.01,none,,273,8477,0.7651291730565059,0.6242947908922991,0.9123626373626373,0.6784907365567103,0.39416058394160586,0.7710703505920594,0.8929527207850134,0.20074349442379183,0.8357870894677236,0.7710874309924252,0.2660098522167488,3640,4426,411,8066,0.7840317381601786,0.5443816865435475,0.9123626373626373,0.6784907365567103,0.0,0.8048957828405235,0.9113808801213961,0.0,0.8552665464846768,0.7778785131459656,0.0,3640,4426,0,119,1.0,0.3333333333333333,0.0,0.0,1.0,0.0,0.0,1.0,0.0,0.0,1.0,0,0,119,292,0.14726027397260275,0.08557213930348258,0.0,0.0,0.14726027397260275,0.0,0.0,1.0,0.0,0.0,0.25671641791044775,0,0,292,8185,0.7871716554673183,0.634226911156609,0.9123626373626373,0.6784907365567103,1.0,0.8048957828405235,0.9113808801213961,0.15575916230366493,0.8552665464846768,0.7778785131459656,0.2695356738391846,3640,4426,119,0.07996528638730474,0.39416058394160586,1.0751744185319583
simple_pc1_gm_gate_t254,score_dual,0.01,qrs_visibility__le,0.2800807397384144,273,8477,0.7651291730565059,0.6242947908922991,0.9123626373626373,0.6784907365567103,0.39416058394160586,0.7710703505920594,0.8929527207850134,0.20074349442379183,0.8357870894677236,0.7710874309924252,0.2660098522167488,3640,4426,411,8066,0.7840317381601786,0.5443816865435475,0.9123626373626373,0.6784907365567103,0.0,0.8048957828405235,0.9113808801213961,0.0,0.8552665464846768,0.7778785131459656,0.0,3640,4426,0,119,1.0,0.3333333333333333,0.0,0.0,1.0,0.0,0.0,1.0,0.0,0.0,1.0,0,0,119,292,0.14726027397260275,0.08557213930348258,0.0,0.0,0.14726027397260275,0.0,0.0,1.0,0.0,0.0,0.25671641791044775,0,0,292,8185,0.7871716554673183,0.634226911156609,0.9123626373626373,0.6784907365567103,1.0,0.8048957828405235,0.9113808801213961,0.15575916230366493,0.8552665464846768,0.7778785131459656,0.2695356738391846,3640,4426,119,0.07996528638730474,0.39416058394160586,1.0751744185319583
simple_pc1_gm_gate_t254,score_dual,0.01,qrs_visibility__le,0.3732307518330272,273,8477,0.7651291730565059,0.6242947908922991,0.9123626373626373,0.6784907365567103,0.39416058394160586,0.7710703505920594,0.8929527207850134,0.20074349442379183,0.8357870894677236,0.7710874309924252,0.2660098522167488,3640,4426,411,8066,0.7840317381601786,0.5443816865435475,0.9123626373626373,0.6784907365567103,0.0,0.8048957828405235,0.9113808801213961,0.0,0.8552665464846768,0.7778785131459656,0.0,3640,4426,0,119,1.0,0.3333333333333333,0.0,0.0,1.0,0.0,0.0,1.0,0.0,0.0,1.0,0,0,119,292,0.14726027397260275,0.08557213930348258,0.0,0.0,0.14726027397260275,0.0,0.0,1.0,0.0,0.0,0.25671641791044775,0,0,292,8185,0.7871716554673183,0.634226911156609,0.9123626373626373,0.6784907365567103,1.0,0.8048957828405235,0.9113808801213961,0.15575916230366493,0.8552665464846768,0.7778785131459656,0.2695356738391846,3640,4426,119,0.07996528638730474,0.39416058394160586,1.0751744185319583
simple_pc1_gm_gate_t254,score_all_max,0.01,none,,273,8477,0.7651291730565059,0.6242947908922991,0.9123626373626373,0.6784907365567103,0.39416058394160586,0.7710703505920594,0.8929527207850134,0.20074349442379183,0.8357870894677236,0.7710874309924252,0.2660098522167488,3640,4426,411,8066,0.7840317381601786,0.5443816865435475,0.9123626373626373,0.6784907365567103,0.0,0.8048957828405235,0.9113808801213961,0.0,0.8552665464846768,0.7778785131459656,0.0,3640,4426,0,119,1.0,0.3333333333333333,0.0,0.0,1.0,0.0,0.0,1.0,0.0,0.0,1.0,0,0,119,292,0.14726027397260275,0.08557213930348258,0.0,0.0,0.14726027397260275,0.0,0.0,1.0,0.0,0.0,0.25671641791044775,0,0,292,8185,0.7871716554673183,0.634226911156609,0.9123626373626373,0.6784907365567103,1.0,0.8048957828405235,0.9113808801213961,0.15575916230366493,0.8552665464846768,0.7778785131459656,0.2695356738391846,3640,4426,119,0.07996528638730474,0.39416058394160586,1.0751744185319583
simple_pc1_gm_gate_t254,score_all_max,0.01,qrs_visibility__le,0.2800807397384144,273,8477,0.7651291730565059,0.6242947908922991,0.9123626373626373,0.6784907365567103,0.39416058394160586,0.7710703505920594,0.8929527207850134,0.20074349442379183,0.8357870894677236,0.7710874309924252,0.2660098522167488,3640,4426,411,8066,0.7840317381601786,0.5443816865435475,0.9123626373626373,0.6784907365567103,0.0,0.8048957828405235,0.9113808801213961,0.0,0.8552665464846768,0.7778785131459656,0.0,3640,4426,0,119,1.0,0.3333333333333333,0.0,0.0,1.0,0.0,0.0,1.0,0.0,0.0,1.0,0,0,119,292,0.14726027397260275,0.08557213930348258,0.0,0.0,0.14726027397260275,0.0,0.0,1.0,0.0,0.0,0.25671641791044775,0,0,292,8185,0.7871716554673183,0.634226911156609,0.9123626373626373,0.6784907365567103,1.0,0.8048957828405235,0.9113808801213961,0.15575916230366493,0.8552665464846768,0.7778785131459656,0.2695356738391846,3640,4426,119,0.07996528638730474,0.39416058394160586,1.0751744185319583
simple_pc1_gm_gate_t254,score_all_max,0.01,qrs_visibility__le,0.3732307518330272,273,8477,0.7651291730565059,0.6242947908922991,0.9123626373626373,0.6784907365567103,0.39416058394160586,0.7710703505920594,0.8929527207850134,0.20074349442379183,0.8357870894677236,0.7710874309924252,0.2660098522167488,3640,4426,411,8066,0.7840317381601786,0.5443816865435475,0.9123626373626373,0.6784907365567103,0.0,0.8048957828405235,0.9113808801213961,0.0,0.8552665464846768,0.7778785131459656,0.0,3640,4426,0,119,1.0,0.3333333333333333,0.0,0.0,1.0,0.0,0.0,1.0,0.0,0.0,1.0,0,0,119,292,0.14726027397260275,0.08557213930348258,0.0,0.0,0.14726027397260275,0.0,0.0,1.0,0.0,0.0,0.25671641791044775,0,0,292,8185,0.7871716554673183,0.634226911156609,0.9123626373626373,0.6784907365567103,1.0,0.8048957828405235,0.9113808801213961,0.15575916230366493,0.8552665464846768,0.7778785131459656,0.2695356738391846,3640,4426,119,0.07996528638730474,0.39416058394160586,1.0751744185319583
simple_pc1_gm_gate_t254,score_core,0.01,none,,273,8477,0.7651291730565059,0.6242947908922991,0.9123626373626373,0.6784907365567103,0.39416058394160586,0.7710703505920594,0.8929527207850134,0.20074349442379183,0.8357870894677236,0.7710874309924252,0.2660098522167488,3640,4426,411,8066,0.7840317381601786,0.5443816865435475,0.9123626373626373,0.6784907365567103,0.0,0.8048957828405235,0.9113808801213961,0.0,0.8552665464846768,0.7778785131459656,0.0,3640,4426,0,119,1.0,0.3333333333333333,0.0,0.0,1.0,0.0,0.0,1.0,0.0,0.0,1.0,0,0,119,292,0.14726027397260275,0.08557213930348258,0.0,0.0,0.14726027397260275,0.0,0.0,1.0,0.0,0.0,0.25671641791044775,0,0,292,8185,0.7871716554673183,0.634226911156609,0.9123626373626373,0.6784907365567103,1.0,0.8048957828405235,0.9113808801213961,0.15575916230366493,0.8552665464846768,0.7778785131459656,0.2695356738391846,3640,4426,119,0.07996528638730474,0.39416058394160586,1.0751744185319583
simple_pc1_gm_gate_t254,score_core,0.01,qrs_visibility__le,0.2800807397384144,273,8477,0.7651291730565059,0.6242947908922991,0.9123626373626373,0.6784907365567103,0.39416058394160586,0.7710703505920594,0.8929527207850134,0.20074349442379183,0.8357870894677236,0.7710874309924252,0.2660098522167488,3640,4426,411,8066,0.7840317381601786,0.5443816865435475,0.9123626373626373,0.6784907365567103,0.0,0.8048957828405235,0.9113808801213961,0.0,0.8552665464846768,0.7778785131459656,0.0,3640,4426,0,119,1.0,0.3333333333333333,0.0,0.0,1.0,0.0,0.0,1.0,0.0,0.0,1.0,0,0,119,292,0.14726027397260275,0.08557213930348258,0.0,0.0,0.14726027397260275,0.0,0.0,1.0,0.0,0.0,0.25671641791044775,0,0,292,8185,0.7871716554673183,0.634226911156609,0.9123626373626373,0.6784907365567103,1.0,0.8048957828405235,0.9113808801213961,0.15575916230366493,0.8552665464846768,0.7778785131459656,0.2695356738391846,3640,4426,119,0.07996528638730474,0.39416058394160586,1.0751744185319583
simple_pc1_gm_gate_t254,score_core,0.01,qrs_visibility__le,0.3732307518330272,273,8477,0.7651291730565059,0.6242947908922991,0.9123626373626373,0.6784907365567103,0.39416058394160586,0.7710703505920594,0.8929527207850134,0.20074349442379183,0.8357870894677236,0.7710874309924252,0.2660098522167488,3640,4426,411,8066,0.7840317381601786,0.5443816865435475,0.9123626373626373,0.6784907365567103,0.0,0.8048957828405235,0.9113808801213961,0.0,0.8552665464846768,0.7778785131459656,0.0,3640,4426,0,119,1.0,0.3333333333333333,0.0,0.0,1.0,0.0,0.0,1.0,0.0,0.0,1.0,0,0,119,292,0.14726027397260275,0.08557213930348258,0.0,0.0,0.14726027397260275,0.0,0.0,1.0,0.0,0.0,0.25671641791044775,0,0,292,8185,0.7871716554673183,0.634226911156609,0.9123626373626373,0.6784907365567103,1.0,0.8048957828405235,0.9113808801213961,0.15575916230366493,0.8552665464846768,0.7778785131459656,0.2695356738391846,3640,4426,119,0.07996528638730474,0.39416058394160586,1.0751744185319583
simple_pc1_gm_gate_t254,score_outlier,0.01,none,,273,8477,0.7651291730565059,0.6242947908922991,0.9123626373626373,0.6784907365567103,0.39416058394160586,0.7710703505920594,0.8929527207850134,0.20074349442379183,0.8357870894677236,0.7710874309924252,0.2660098522167488,3640,4426,411,8066,0.7840317381601786,0.5443816865435475,0.9123626373626373,0.6784907365567103,0.0,0.8048957828405235,0.9113808801213961,0.0,0.8552665464846768,0.7778785131459656,0.0,3640,4426,0,119,1.0,0.3333333333333333,0.0,0.0,1.0,0.0,0.0,1.0,0.0,0.0,1.0,0,0,119,292,0.14726027397260275,0.08557213930348258,0.0,0.0,0.14726027397260275,0.0,0.0,1.0,0.0,0.0,0.25671641791044775,0,0,292,8185,0.7871716554673183,0.634226911156609,0.9123626373626373,0.6784907365567103,1.0,0.8048957828405235,0.9113808801213961,0.15575916230366493,0.8552665464846768,0.7778785131459656,0.2695356738391846,3640,4426,119,0.07996528638730474,0.39416058394160586,1.0751744185319583
simple_pc1_gm_gate_t254,score_outlier,0.01,qrs_visibility__le,0.2800807397384144,273,8477,0.7651291730565059,0.6242947908922991,0.9123626373626373,0.6784907365567103,0.39416058394160586,0.7710703505920594,0.8929527207850134,0.20074349442379183,0.8357870894677236,0.7710874309924252,0.2660098522167488,3640,4426,411,8066,0.7840317381601786,0.5443816865435475,0.9123626373626373,0.6784907365567103,0.0,0.8048957828405235,0.9113808801213961,0.0,0.8552665464846768,0.7778785131459656,0.0,3640,4426,0,119,1.0,0.3333333333333333,0.0,0.0,1.0,0.0,0.0,1.0,0.0,0.0,1.0,0,0,119,292,0.14726027397260275,0.08557213930348258,0.0,0.0,0.14726027397260275,0.0,0.0,1.0,0.0,0.0,0.25671641791044775,0,0,292,8185,0.7871716554673183,0.634226911156609,0.9123626373626373,0.6784907365567103,1.0,0.8048957828405235,0.9113808801213961,0.15575916230366493,0.8552665464846768,0.7778785131459656,0.2695356738391846,3640,4426,119,0.07996528638730474,0.39416058394160586,1.0751744185319583
simple_pc1_gm_gate_t254,score_outlier,0.01,qrs_visibility__le,0.3732307518330272,273,8477,0.7651291730565059,0.6242947908922991,0.9123626373626373,0.6784907365567103,0.39416058394160586,0.7710703505920594,0.8929527207850134,0.20074349442379183,0.8357870894677236,0.7710874309924252,0.2660098522167488,3640,4426,411,8066,0.7840317381601786,0.5443816865435475,0.9123626373626373,0.6784907365567103,0.0,0.8048957828405235,0.9113808801213961,0.0,0.8552665464846768,0.7778785131459656,0.0,3640,4426,0,119,1.0,0.3333333333333333,0.0,0.0,1.0,0.0,0.0,1.0,0.0,0.0,1.0,0,0,119,292,0.14726027397260275,0.08557213930348258,0.0,0.0,0.14726027397260275,0.0,0.0,1.0,0.0,0.0,0.25671641791044775,0,0,292,8185,0.7871716554673183,0.634226911156609,0.9123626373626373,0.6784907365567103,1.0,0.8048957828405235,0.9113808801213961,0.15575916230366493,0.8552665464846768,0.7778785131459656,0.2695356738391846,3640,4426,119,0.07996528638730474,0.39416058394160586,1.0751744185319583
simple_pc1_gm_gate_t254,score_dual,0.02,pc3__le,2.1506591515994145,181,8477,0.7694939247375251,0.6285254721116285,0.9129120879120879,0.6877541798463624,0.3795620437956204,0.7628558310376492,0.8937169700528479,0.21818181818181817,0.8311655827913957,0.7773237997957099,0.27708703374777977,3640,4426,411,8066,0.7893627572526655,0.5450644023168439,0.9129120879120879,0.6877541798463624,0.0,0.7968824940047962,0.9121965837578664,0.0,0.8509603072983355,0.7842328996521963,0.0,3640,4426,0,119,0.9915966386554622,0.33192686357243323,0.0,0.0,0.9915966386554622,0.0,0.0,1.0,0.0,0.0,0.9957805907172996,0,0,119,292,0.13013698630136986,0.07676767676767678,0.0,0.0,0.13013698630136986,0.0,0.0,1.0,0.0,0.0,0.23030303030303031,0,0,292,8185,0.792302993280391,0.6438582033788621,0.9129120879120879,0.6877541798463624,0.9915966386554622,0.7968824940047962,0.9119233073696824,0.17429837518463812,0.8509603072983355,0.7841318907779495,0.2964824120603015,3640,4426,119,0.06930324820233077,0.3795620437956204,1.070600683809517
simple_pc1_gm_gate_t254,score_all_max,0.02,pc3__le,2.1506591515994145,181,8477,0.7694939247375251,0.6285254721116285,0.9129120879120879,0.6877541798463624,0.3795620437956204,0.7628558310376492,0.8937169700528479,0.21818181818181817,0.8311655827913957,0.7773237997957099,0.27708703374777977,3640,4426,411,8066,0.7893627572526655,0.5450644023168439,0.9129120879120879,0.6877541798463624,0.0,0.7968824940047962,0.9121965837578664,0.0,0.8509603072983355,0.7842328996521963,0.0,3640,4426,0,119,0.9915966386554622,0.33192686357243323,0.0,0.0,0.9915966386554622,0.0,0.0,1.0,0.0,0.0,0.9957805907172996,0,0,119,292,0.13013698630136986,0.07676767676767678,0.0,0.0,0.13013698630136986,0.0,0.0,1.0,0.0,0.0,0.23030303030303031,0,0,292,8185,0.792302993280391,0.6438582033788621,0.9129120879120879,0.6877541798463624,0.9915966386554622,0.7968824940047962,0.9119233073696824,0.17429837518463812,0.8509603072983355,0.7841318907779495,0.2964824120603015,3640,4426,119,0.06930324820233077,0.3795620437956204,1.070600683809517
simple_pc1_gm_gate_t254,score_core,0.02,pc3__le,2.1506591515994145,181,8477,0.7694939247375251,0.6285254721116285,0.9129120879120879,0.6877541798463624,0.3795620437956204,0.7628558310376492,0.8937169700528479,0.21818181818181817,0.8311655827913957,0.7773237997957099,0.27708703374777977,3640,4426,411,8066,0.7893627572526655,0.5450644023168439,0.9129120879120879,0.6877541798463624,0.0,0.7968824940047962,0.9121965837578664,0.0,0.8509603072983355,0.7842328996521963,0.0,3640,4426,0,119,0.9915966386554622,0.33192686357243323,0.0,0.0,0.9915966386554622,0.0,0.0,1.0,0.0,0.0,0.9957805907172996,0,0,119,292,0.13013698630136986,0.07676767676767678,0.0,0.0,0.13013698630136986,0.0,0.0,1.0,0.0,0.0,0.23030303030303031,0,0,292,8185,0.792302993280391,0.6438582033788621,0.9129120879120879,0.6877541798463624,0.9915966386554622,0.7968824940047962,0.9119233073696824,0.17429837518463812,0.8509603072983355,0.7841318907779495,0.2964824120603015,3640,4426,119,0.06930324820233077,0.3795620437956204,1.070600683809517
simple_pc1_gm_gate_t254,score_outlier,0.02,pc3__le,2.1506591515994145,181,8477,0.7694939247375251,0.6285254721116285,0.9129120879120879,0.6877541798463624,0.3795620437956204,0.7628558310376492,0.8937169700528479,0.21818181818181817,0.8311655827913957,0.7773237997957099,0.27708703374777977,3640,4426,411,8066,0.7893627572526655,0.5450644023168439,0.9129120879120879,0.6877541798463624,0.0,0.7968824940047962,0.9121965837578664,0.0,0.8509603072983355,0.7842328996521963,0.0,3640,4426,0,119,0.9915966386554622,0.33192686357243323,0.0,0.0,0.9915966386554622,0.0,0.0,1.0,0.0,0.0,0.9957805907172996,0,0,119,292,0.13013698630136986,0.07676767676767678,0.0,0.0,0.13013698630136986,0.0,0.0,1.0,0.0,0.0,0.23030303030303031,0,0,292,8185,0.792302993280391,0.6438582033788621,0.9129120879120879,0.6877541798463624,0.9915966386554622,0.7968824940047962,0.9119233073696824,0.17429837518463812,0.8509603072983355,0.7841318907779495,0.2964824120603015,3640,4426,119,0.06930324820233077,0.3795620437956204,1.070600683809517
simple_pc1_gm_gate_t254,score_dual,0.01,pc1__ge,-6.099036591134506,250,8477,0.7647752742715583,0.6230495584343136,0.9126373626373626,0.6784907365567103,0.3844282238442822,0.7672055427251732,0.8929527207850134,0.20153061224489796,0.8336260978670013,0.7710874309924252,0.2644351464435146,3640,4426,411,8066,0.7841557153483759,0.5437715360668526,0.9126373626373626,0.6784907365567103,0.0,0.8014475271411339,0.9113808801213961,0.0,0.8534360950545922,0.7778785131459656,0.0,3640,4426,0,119,1.0,0.3333333333333333,0.0,0.0,1.0,0.0,0.0,1.0,0.0,0.0,1.0,0,0,119,292,0.13356164383561644,0.07854984894259819,0.0,0.0,0.13356164383561644,0.0,0.0,1.0,0.0,0.0,0.23564954682779457,0,0,292,8185,0.7872938301771534,0.6355925237211736,0.9126373626373626,0.6784907365567103,1.0,0.8014475271411339,0.9113808801213961,0.1597315436241611,0.8534360950545922,0.7778785131459656,0.27546296296296297,3640,4426,119,0.07760971981155468,0.3844282238442822,1.0693593991923995
simple_pc1_gm_gate_t254,score_all_max,0.01,pc1__ge,-6.099036591134506,250,8477,0.7647752742715583,0.6230495584343136,0.9126373626373626,0.6784907365567103,0.3844282238442822,0.7672055427251732,0.8929527207850134,0.20153061224489796,0.8336260978670013,0.7710874309924252,0.2644351464435146,3640,4426,411,8066,0.7841557153483759,0.5437715360668526,0.9126373626373626,0.6784907365567103,0.0,0.8014475271411339,0.9113808801213961,0.0,0.8534360950545922,0.7778785131459656,0.0,3640,4426,0,119,1.0,0.3333333333333333,0.0,0.0,1.0,0.0,0.0,1.0,0.0,0.0,1.0,0,0,119,292,0.13356164383561644,0.07854984894259819,0.0,0.0,0.13356164383561644,0.0,0.0,1.0,0.0,0.0,0.23564954682779457,0,0,292,8185,0.7872938301771534,0.6355925237211736,0.9126373626373626,0.6784907365567103,1.0,0.8014475271411339,0.9113808801213961,0.1597315436241611,0.8534360950545922,0.7778785131459656,0.27546296296296297,3640,4426,119,0.07760971981155468,0.3844282238442822,1.0693593991923995
simple_pc1_gm_gate_t254,score_core,0.01,pc1__ge,-6.099036591134506,250,8477,0.7647752742715583,0.6230495584343136,0.9126373626373626,0.6784907365567103,0.3844282238442822,0.7672055427251732,0.8929527207850134,0.20153061224489796,0.8336260978670013,0.7710874309924252,0.2644351464435146,3640,4426,411,8066,0.7841557153483759,0.5437715360668526,0.9126373626373626,0.6784907365567103,0.0,0.8014475271411339,0.9113808801213961,0.0,0.8534360950545922,0.7778785131459656,0.0,3640,4426,0,119,1.0,0.3333333333333333,0.0,0.0,1.0,0.0,0.0,1.0,0.0,0.0,1.0,0,0,119,292,0.13356164383561644,0.07854984894259819,0.0,0.0,0.13356164383561644,0.0,0.0,1.0,0.0,0.0,0.23564954682779457,0,0,292,8185,0.7872938301771534,0.6355925237211736,0.9126373626373626,0.6784907365567103,1.0,0.8014475271411339,0.9113808801213961,0.1597315436241611,0.8534360950545922,0.7778785131459656,0.27546296296296297,3640,4426,119,0.07760971981155468,0.3844282238442822,1.0693593991923995
simple_pc1_gm_gate_t254,score_outlier,0.01,pc1__ge,-6.099036591134506,250,8477,0.7647752742715583,0.6230495584343136,0.9126373626373626,0.6784907365567103,0.3844282238442822,0.7672055427251732,0.8929527207850134,0.20153061224489796,0.8336260978670013,0.7710874309924252,0.2644351464435146,3640,4426,411,8066,0.7841557153483759,0.5437715360668526,0.9126373626373626,0.6784907365567103,0.0,0.8014475271411339,0.9113808801213961,0.0,0.8534360950545922,0.7778785131459656,0.0,3640,4426,0,119,1.0,0.3333333333333333,0.0,0.0,1.0,0.0,0.0,1.0,0.0,0.0,1.0,0,0,119,292,0.13356164383561644,0.07854984894259819,0.0,0.0,0.13356164383561644,0.0,0.0,1.0,0.0,0.0,0.23564954682779457,0,0,292,8185,0.7872938301771534,0.6355925237211736,0.9126373626373626,0.6784907365567103,1.0,0.8014475271411339,0.9113808801213961,0.1597315436241611,0.8534360950545922,0.7778785131459656,0.27546296296296297,3640,4426,119,0.07760971981155468,0.3844282238442822,1.0693593991923995
simple_pc1_gm_gate_t254,score_dual,0.02,none,,200,8477,0.7672525657661908,0.6260017024441892,0.9129120879120879,0.6834613646633529,0.3795620437956204,0.7628558310376492,0.8931207558311189,0.2125340599455041,0.8311655827913957,0.7743504415717394,0.2724890829694323,3640,4426,411,8066,0.7870071906769155,0.5440701024327784,0.9129120879120879,0.6834613646633529,0.0,0.7968824940047962,0.9116937914406269,0.0,0.8509603072983355,0.78125,0.0,3640,4426,0,119,0.9915966386554622,0.33192686357243323,0.0,0.0,0.9915966386554622,0.0,0.0,1.0,0.0,0.0,0.9957805907172996,0,0,119,292,0.13013698630136986,0.07676767676767678,0.0,0.0,0.13013698630136986,0.0,0.0,1.0,0.0,0.0,0.23030303030303031,0,0,292,8185,0.7899816737935247,0.6405599959718518,0.9129120879120879,0.6834613646633529,0.9915966386554622,0.7968824940047962,0.9114191021391985,0.16954022988505746,0.8509603072983355,0.7811491284699806,0.28957055214723926,3640,4426,119,0.07165881477808084,0.3795620437956204,1.0683593248381826
simple_pc1_gm_gate_t254,score_dual,0.02,pc3__le,3.281193089810729,200,8477,0.7672525657661908,0.6260017024441892,0.9129120879120879,0.6834613646633529,0.3795620437956204,0.7628558310376492,0.8931207558311189,0.2125340599455041,0.8311655827913957,0.7743504415717394,0.2724890829694323,3640,4426,411,8066,0.7870071906769155,0.5440701024327784,0.9129120879120879,0.6834613646633529,0.0,0.7968824940047962,0.9116937914406269,0.0,0.8509603072983355,0.78125,0.0,3640,4426,0,119,0.9915966386554622,0.33192686357243323,0.0,0.0,0.9915966386554622,0.0,0.0,1.0,0.0,0.0,0.9957805907172996,0,0,119,292,0.13013698630136986,0.07676767676767678,0.0,0.0,0.13013698630136986,0.0,0.0,1.0,0.0,0.0,0.23030303030303031,0,0,292,8185,0.7899816737935247,0.6405599959718518,0.9129120879120879,0.6834613646633529,0.9915966386554622,0.7968824940047962,0.9114191021391985,0.16954022988505746,0.8509603072983355,0.7811491284699806,0.28957055214723926,3640,4426,119,0.07165881477808084,0.3795620437956204,1.0683593248381826
simple_pc1_gm_gate_t254,score_dual,0.02,qrs_visibility__le,0.2800807397384144,200,8477,0.7672525657661908,0.6260017024441892,0.9129120879120879,0.6834613646633529,0.3795620437956204,0.7628558310376492,0.8931207558311189,0.2125340599455041,0.8311655827913957,0.7743504415717394,0.2724890829694323,3640,4426,411,8066,0.7870071906769155,0.5440701024327784,0.9129120879120879,0.6834613646633529,0.0,0.7968824940047962,0.9116937914406269,0.0,0.8509603072983355,0.78125,0.0,3640,4426,0,119,0.9915966386554622,0.33192686357243323,0.0,0.0,0.9915966386554622,0.0,0.0,1.0,0.0,0.0,0.9957805907172996,0,0,119,292,0.13013698630136986,0.07676767676767678,0.0,0.0,0.13013698630136986,0.0,0.0,1.0,0.0,0.0,0.23030303030303031,0,0,292,8185,0.7899816737935247,0.6405599959718518,0.9129120879120879,0.6834613646633529,0.9915966386554622,0.7968824940047962,0.9114191021391985,0.16954022988505746,0.8509603072983355,0.7811491284699806,0.28957055214723926,3640,4426,119,0.07165881477808084,0.3795620437956204,1.0683593248381826
simple_pc1_gm_gate_t254,score_dual,0.02,qrs_visibility__le,0.3732307518330272,200,8477,0.7672525657661908,0.6260017024441892,0.9129120879120879,0.6834613646633529,0.3795620437956204,0.7628558310376492,0.8931207558311189,0.2125340599455041,0.8311655827913957,0.7743504415717394,0.2724890829694323,3640,4426,411,8066,0.7870071906769155,0.5440701024327784,0.9129120879120879,0.6834613646633529,0.0,0.7968824940047962,0.9116937914406269,0.0,0.8509603072983355,0.78125,0.0,3640,4426,0,119,0.9915966386554622,0.33192686357243323,0.0,0.0,0.9915966386554622,0.0,0.0,1.0,0.0,0.0,0.9957805907172996,0,0,119,292,0.13013698630136986,0.07676767676767678,0.0,0.0,0.13013698630136986,0.0,0.0,1.0,0.0,0.0,0.23030303030303031,0,0,292,8185,0.7899816737935247,0.6405599959718518,0.9129120879120879,0.6834613646633529,0.9915966386554622,0.7968824940047962,0.9114191021391985,0.16954022988505746,0.8509603072983355,0.7811491284699806,0.28957055214723926,3640,4426,119,0.07165881477808084,0.3795620437956204,1.0683593248381826
simple_pc1_gm_gate_t254,score_all_max,0.02,none,,200,8477,0.7672525657661908,0.6260017024441892,0.9129120879120879,0.6834613646633529,0.3795620437956204,0.7628558310376492,0.8931207558311189,0.2125340599455041,0.8311655827913957,0.7743504415717394,0.2724890829694323,3640,4426,411,8066,0.7870071906769155,0.5440701024327784,0.9129120879120879,0.6834613646633529,0.0,0.7968824940047962,0.9116937914406269,0.0,0.8509603072983355,0.78125,0.0,3640,4426,0,119,0.9915966386554622,0.33192686357243323,0.0,0.0,0.9915966386554622,0.0,0.0,1.0,0.0,0.0,0.9957805907172996,0,0,119,292,0.13013698630136986,0.07676767676767678,0.0,0.0,0.13013698630136986,0.0,0.0,1.0,0.0,0.0,0.23030303030303031,0,0,292,8185,0.7899816737935247,0.6405599959718518,0.9129120879120879,0.6834613646633529,0.9915966386554622,0.7968824940047962,0.9114191021391985,0.16954022988505746,0.8509603072983355,0.7811491284699806,0.28957055214723926,3640,4426,119,0.07165881477808084,0.3795620437956204,1.0683593248381826
simple_pc1_gm_gate_t254,score_all_max,0.02,pc3__le,3.281193089810729,200,8477,0.7672525657661908,0.6260017024441892,0.9129120879120879,0.6834613646633529,0.3795620437956204,0.7628558310376492,0.8931207558311189,0.2125340599455041,0.8311655827913957,0.7743504415717394,0.2724890829694323,3640,4426,411,8066,0.7870071906769155,0.5440701024327784,0.9129120879120879,0.6834613646633529,0.0,0.7968824940047962,0.9116937914406269,0.0,0.8509603072983355,0.78125,0.0,3640,4426,0,119,0.9915966386554622,0.33192686357243323,0.0,0.0,0.9915966386554622,0.0,0.0,1.0,0.0,0.0,0.9957805907172996,0,0,119,292,0.13013698630136986,0.07676767676767678,0.0,0.0,0.13013698630136986,0.0,0.0,1.0,0.0,0.0,0.23030303030303031,0,0,292,8185,0.7899816737935247,0.6405599959718518,0.9129120879120879,0.6834613646633529,0.9915966386554622,0.7968824940047962,0.9114191021391985,0.16954022988505746,0.8509603072983355,0.7811491284699806,0.28957055214723926,3640,4426,119,0.07165881477808084,0.3795620437956204,1.0683593248381826
simple_pc1_gm_gate_t254,score_all_max,0.02,qrs_visibility__le,0.2800807397384144,200,8477,0.7672525657661908,0.6260017024441892,0.9129120879120879,0.6834613646633529,0.3795620437956204,0.7628558310376492,0.8931207558311189,0.2125340599455041,0.8311655827913957,0.7743504415717394,0.2724890829694323,3640,4426,411,8066,0.7870071906769155,0.5440701024327784,0.9129120879120879,0.6834613646633529,0.0,0.7968824940047962,0.9116937914406269,0.0,0.8509603072983355,0.78125,0.0,3640,4426,0,119,0.9915966386554622,0.33192686357243323,0.0,0.0,0.9915966386554622,0.0,0.0,1.0,0.0,0.0,0.9957805907172996,0,0,119,292,0.13013698630136986,0.07676767676767678,0.0,0.0,0.13013698630136986,0.0,0.0,1.0,0.0,0.0,0.23030303030303031,0,0,292,8185,0.7899816737935247,0.6405599959718518,0.9129120879120879,0.6834613646633529,0.9915966386554622,0.7968824940047962,0.9114191021391985,0.16954022988505746,0.8509603072983355,0.7811491284699806,0.28957055214723926,3640,4426,119,0.07165881477808084,0.3795620437956204,1.0683593248381826
simple_pc1_gm_gate_t254,score_all_max,0.02,qrs_visibility__le,0.3732307518330272,200,8477,0.7672525657661908,0.6260017024441892,0.9129120879120879,0.6834613646633529,0.3795620437956204,0.7628558310376492,0.8931207558311189,0.2125340599455041,0.8311655827913957,0.7743504415717394,0.2724890829694323,3640,4426,411,8066,0.7870071906769155,0.5440701024327784,0.9129120879120879,0.6834613646633529,0.0,0.7968824940047962,0.9116937914406269,0.0,0.8509603072983355,0.78125,0.0,3640,4426,0,119,0.9915966386554622,0.33192686357243323,0.0,0.0,0.9915966386554622,0.0,0.0,1.0,0.0,0.0,0.9957805907172996,0,0,119,292,0.13013698630136986,0.07676767676767678,0.0,0.0,0.13013698630136986,0.0,0.0,1.0,0.0,0.0,0.23030303030303031,0,0,292,8185,0.7899816737935247,0.6405599959718518,0.9129120879120879,0.6834613646633529,0.9915966386554622,0.7968824940047962,0.9114191021391985,0.16954022988505746,0.8509603072983355,0.7811491284699806,0.28957055214723926,3640,4426,119,0.07165881477808084,0.3795620437956204,1.0683593248381826
simple_pc1_gm_gate_t254,score_core,0.02,none,,200,8477,0.7672525657661908,0.6260017024441892,0.9129120879120879,0.6834613646633529,0.3795620437956204,0.7628558310376492,0.8931207558311189,0.2125340599455041,0.8311655827913957,0.7743504415717394,0.2724890829694323,3640,4426,411,8066,0.7870071906769155,0.5440701024327784,0.9129120879120879,0.6834613646633529,0.0,0.7968824940047962,0.9116937914406269,0.0,0.8509603072983355,0.78125,0.0,3640,4426,0,119,0.9915966386554622,0.33192686357243323,0.0,0.0,0.9915966386554622,0.0,0.0,1.0,0.0,0.0,0.9957805907172996,0,0,119,292,0.13013698630136986,0.07676767676767678,0.0,0.0,0.13013698630136986,0.0,0.0,1.0,0.0,0.0,0.23030303030303031,0,0,292,8185,0.7899816737935247,0.6405599959718518,0.9129120879120879,0.6834613646633529,0.9915966386554622,0.7968824940047962,0.9114191021391985,0.16954022988505746,0.8509603072983355,0.7811491284699806,0.28957055214723926,3640,4426,119,0.07165881477808084,0.3795620437956204,1.0683593248381826
simple_pc1_gm_gate_t254,score_core,0.02,pc3__le,3.281193089810729,200,8477,0.7672525657661908,0.6260017024441892,0.9129120879120879,0.6834613646633529,0.3795620437956204,0.7628558310376492,0.8931207558311189,0.2125340599455041,0.8311655827913957,0.7743504415717394,0.2724890829694323,3640,4426,411,8066,0.7870071906769155,0.5440701024327784,0.9129120879120879,0.6834613646633529,0.0,0.7968824940047962,0.9116937914406269,0.0,0.8509603072983355,0.78125,0.0,3640,4426,0,119,0.9915966386554622,0.33192686357243323,0.0,0.0,0.9915966386554622,0.0,0.0,1.0,0.0,0.0,0.9957805907172996,0,0,119,292,0.13013698630136986,0.07676767676767678,0.0,0.0,0.13013698630136986,0.0,0.0,1.0,0.0,0.0,0.23030303030303031,0,0,292,8185,0.7899816737935247,0.6405599959718518,0.9129120879120879,0.6834613646633529,0.9915966386554622,0.7968824940047962,0.9114191021391985,0.16954022988505746,0.8509603072983355,0.7811491284699806,0.28957055214723926,3640,4426,119,0.07165881477808084,0.3795620437956204,1.0683593248381826
simple_pc1_gm_gate_t254,score_core,0.02,qrs_visibility__le,0.2800807397384144,200,8477,0.7672525657661908,0.6260017024441892,0.9129120879120879,0.6834613646633529,0.3795620437956204,0.7628558310376492,0.8931207558311189,0.2125340599455041,0.8311655827913957,0.7743504415717394,0.2724890829694323,3640,4426,411,8066,0.7870071906769155,0.5440701024327784,0.9129120879120879,0.6834613646633529,0.0,0.7968824940047962,0.9116937914406269,0.0,0.8509603072983355,0.78125,0.0,3640,4426,0,119,0.9915966386554622,0.33192686357243323,0.0,0.0,0.9915966386554622,0.0,0.0,1.0,0.0,0.0,0.9957805907172996,0,0,119,292,0.13013698630136986,0.07676767676767678,0.0,0.0,0.13013698630136986,0.0,0.0,1.0,0.0,0.0,0.23030303030303031,0,0,292,8185,0.7899816737935247,0.6405599959718518,0.9129120879120879,0.6834613646633529,0.9915966386554622,0.7968824940047962,0.9114191021391985,0.16954022988505746,0.8509603072983355,0.7811491284699806,0.28957055214723926,3640,4426,119,0.07165881477808084,0.3795620437956204,1.0683593248381826
simple_pc1_gm_gate_t254,score_core,0.02,qrs_visibility__le,0.3732307518330272,200,8477,0.7672525657661908,0.6260017024441892,0.9129120879120879,0.6834613646633529,0.3795620437956204,0.7628558310376492,0.8931207558311189,0.2125340599455041,0.8311655827913957,0.7743504415717394,0.2724890829694323,3640,4426,411,8066,0.7870071906769155,0.5440701024327784,0.9129120879120879,0.6834613646633529,0.0,0.7968824940047962,0.9116937914406269,0.0,0.8509603072983355,0.78125,0.0,3640,4426,0,119,0.9915966386554622,0.33192686357243323,0.0,0.0,0.9915966386554622,0.0,0.0,1.0,0.0,0.0,0.9957805907172996,0,0,119,292,0.13013698630136986,0.07676767676767678,0.0,0.0,0.13013698630136986,0.0,0.0,1.0,0.0,0.0,0.23030303030303031,0,0,292,8185,0.7899816737935247,0.6405599959718518,0.9129120879120879,0.6834613646633529,0.9915966386554622,0.7968824940047962,0.9114191021391985,0.16954022988505746,0.8509603072983355,0.7811491284699806,0.28957055214723926,3640,4426,119,0.07165881477808084,0.3795620437956204,1.0683593248381826
simple_pc1_gm_gate_t254,score_outlier,0.02,none,,200,8477,0.7672525657661908,0.6260017024441892,0.9129120879120879,0.6834613646633529,0.3795620437956204,0.7628558310376492,0.8931207558311189,0.2125340599455041,0.8311655827913957,0.7743504415717394,0.2724890829694323,3640,4426,411,8066,0.7870071906769155,0.5440701024327784,0.9129120879120879,0.6834613646633529,0.0,0.7968824940047962,0.9116937914406269,0.0,0.8509603072983355,0.78125,0.0,3640,4426,0,119,0.9915966386554622,0.33192686357243323,0.0,0.0,0.9915966386554622,0.0,0.0,1.0,0.0,0.0,0.9957805907172996,0,0,119,292,0.13013698630136986,0.07676767676767678,0.0,0.0,0.13013698630136986,0.0,0.0,1.0,0.0,0.0,0.23030303030303031,0,0,292,8185,0.7899816737935247,0.6405599959718518,0.9129120879120879,0.6834613646633529,0.9915966386554622,0.7968824940047962,0.9114191021391985,0.16954022988505746,0.8509603072983355,0.7811491284699806,0.28957055214723926,3640,4426,119,0.07165881477808084,0.3795620437956204,1.0683593248381826
simple_pc1_gm_gate_t254,score_outlier,0.02,pc3__le,3.281193089810729,200,8477,0.7672525657661908,0.6260017024441892,0.9129120879120879,0.6834613646633529,0.3795620437956204,0.7628558310376492,0.8931207558311189,0.2125340599455041,0.8311655827913957,0.7743504415717394,0.2724890829694323,3640,4426,411,8066,0.7870071906769155,0.5440701024327784,0.9129120879120879,0.6834613646633529,0.0,0.7968824940047962,0.9116937914406269,0.0,0.8509603072983355,0.78125,0.0,3640,4426,0,119,0.9915966386554622,0.33192686357243323,0.0,0.0,0.9915966386554622,0.0,0.0,1.0,0.0,0.0,0.9957805907172996,0,0,119,292,0.13013698630136986,0.07676767676767678,0.0,0.0,0.13013698630136986,0.0,0.0,1.0,0.0,0.0,0.23030303030303031,0,0,292,8185,0.7899816737935247,0.6405599959718518,0.9129120879120879,0.6834613646633529,0.9915966386554622,0.7968824940047962,0.9114191021391985,0.16954022988505746,0.8509603072983355,0.7811491284699806,0.28957055214723926,3640,4426,119,0.07165881477808084,0.3795620437956204,1.0683593248381826
simple_pc1_gm_gate_t254,score_outlier,0.02,qrs_visibility__le,0.2800807397384144,200,8477,0.7672525657661908,0.6260017024441892,0.9129120879120879,0.6834613646633529,0.3795620437956204,0.7628558310376492,0.8931207558311189,0.2125340599455041,0.8311655827913957,0.7743504415717394,0.2724890829694323,3640,4426,411,8066,0.7870071906769155,0.5440701024327784,0.9129120879120879,0.6834613646633529,0.0,0.7968824940047962,0.9116937914406269,0.0,0.8509603072983355,0.78125,0.0,3640,4426,0,119,0.9915966386554622,0.33192686357243323,0.0,0.0,0.9915966386554622,0.0,0.0,1.0,0.0,0.0,0.9957805907172996,0,0,119,292,0.13013698630136986,0.07676767676767678,0.0,0.0,0.13013698630136986,0.0,0.0,1.0,0.0,0.0,0.23030303030303031,0,0,292,8185,0.7899816737935247,0.6405599959718518,0.9129120879120879,0.6834613646633529,0.9915966386554622,0.7968824940047962,0.9114191021391985,0.16954022988505746,0.8509603072983355,0.7811491284699806,0.28957055214723926,3640,4426,119,0.07165881477808084,0.3795620437956204,1.0683593248381826
simple_pc1_gm_gate_t254,score_outlier,0.02,qrs_visibility__le,0.3732307518330272,200,8477,0.7672525657661908,0.6260017024441892,0.9129120879120879,0.6834613646633529,0.3795620437956204,0.7628558310376492,0.8931207558311189,0.2125340599455041,0.8311655827913957,0.7743504415717394,0.2724890829694323,3640,4426,411,8066,0.7870071906769155,0.5440701024327784,0.9129120879120879,0.6834613646633529,0.0,0.7968824940047962,0.9116937914406269,0.0,0.8509603072983355,0.78125,0.0,3640,4426,0,119,0.9915966386554622,0.33192686357243323,0.0,0.0,0.9915966386554622,0.0,0.0,1.0,0.0,0.0,0.9957805907172996,0,0,119,292,0.13013698630136986,0.07676767676767678,0.0,0.0,0.13013698630136986,0.0,0.0,1.0,0.0,0.0,0.23030303030303031,0,0,292,8185,0.7899816737935247,0.6405599959718518,0.9129120879120879,0.6834613646633529,0.9915966386554622,0.7968824940047962,0.9114191021391985,0.16954022988505746,0.8509603072983355,0.7811491284699806,0.28957055214723926,3640,4426,119,0.07165881477808084,0.3795620437956204,1.0683593248381826
simple_pc1_gm_gate_t254,score_dual,0.01,pc3__ge,-2.4479177605053817,222,8477,0.7647752742715583,0.6237037171918424,0.9129120879120879,0.6784907365567103,0.3819951338199513,0.7625057365764112,0.8929527207850134,0.20767195767195767,0.8309577394348587,0.7710874309924252,0.26906598114824337,3640,4426,411,8066,0.7842796925365733,0.5428736535542021,0.9129120879120879,0.6784907365567103,0.0,0.7965004793863855,0.9113808801213961,0.0,0.8507424475166411,0.7778785131459656,0.0,3640,4426,0,119,1.0,0.3333333333333333,0.0,0.0,1.0,0.0,0.0,1.0,0.0,0.0,1.0,0,0,119,292,0.13013698630136986,0.07676767676767678,0.0,0.0,0.13013698630136986,0.0,0.0,1.0,0.0,0.0,0.23030303030303031,0,0,292,8185,0.7874160048869884,0.637656608552211,0.9129120879120879,0.6784907365567103,1.0,0.7965004793863855,0.9113808801213961,0.16573816155988857,0.8507424475166411,0.7778785131459656,0.2843488649940263,3640,4426,119,0.07426233573022564,0.3819951338199513,1.0679941190537467
simple_pc1_gm_gate_t254,score_all_max,0.01,pc3__ge,-2.4479177605053817,222,8477,0.7647752742715583,0.6237037171918424,0.9129120879120879,0.6784907365567103,0.3819951338199513,0.7625057365764112,0.8929527207850134,0.20767195767195767,0.8309577394348587,0.7710874309924252,0.26906598114824337,3640,4426,411,8066,0.7842796925365733,0.5428736535542021,0.9129120879120879,0.6784907365567103,0.0,0.7965004793863855,0.9113808801213961,0.0,0.8507424475166411,0.7778785131459656,0.0,3640,4426,0,119,1.0,0.3333333333333333,0.0,0.0,1.0,0.0,0.0,1.0,0.0,0.0,1.0,0,0,119,292,0.13013698630136986,0.07676767676767678,0.0,0.0,0.13013698630136986,0.0,0.0,1.0,0.0,0.0,0.23030303030303031,0,0,292,8185,0.7874160048869884,0.637656608552211,0.9129120879120879,0.6784907365567103,1.0,0.7965004793863855,0.9113808801213961,0.16573816155988857,0.8507424475166411,0.7778785131459656,0.2843488649940263,3640,4426,119,0.07426233573022564,0.3819951338199513,1.0679941190537467
simple_pc1_gm_gate_t254,score_core,0.01,pc3__ge,-2.4479177605053817,222,8477,0.7647752742715583,0.6237037171918424,0.9129120879120879,0.6784907365567103,0.3819951338199513,0.7625057365764112,0.8929527207850134,0.20767195767195767,0.8309577394348587,0.7710874309924252,0.26906598114824337,3640,4426,411,8066,0.7842796925365733,0.5428736535542021,0.9129120879120879,0.6784907365567103,0.0,0.7965004793863855,0.9113808801213961,0.0,0.8507424475166411,0.7778785131459656,0.0,3640,4426,0,119,1.0,0.3333333333333333,0.0,0.0,1.0,0.0,0.0,1.0,0.0,0.0,1.0,0,0,119,292,0.13013698630136986,0.07676767676767678,0.0,0.0,0.13013698630136986,0.0,0.0,1.0,0.0,0.0,0.23030303030303031,0,0,292,8185,0.7874160048869884,0.637656608552211,0.9129120879120879,0.6784907365567103,1.0,0.7965004793863855,0.9113808801213961,0.16573816155988857,0.8507424475166411,0.7778785131459656,0.2843488649940263,3640,4426,119,0.07426233573022564,0.3819951338199513,1.0679941190537467
simple_pc1_gm_gate_t254,score_outlier,0.01,pc3__ge,-2.4479177605053817,222,8477,0.7647752742715583,0.6237037171918424,0.9129120879120879,0.6784907365567103,0.3819951338199513,0.7625057365764112,0.8929527207850134,0.20767195767195767,0.8309577394348587,0.7710874309924252,0.26906598114824337,3640,4426,411,8066,0.7842796925365733,0.5428736535542021,0.9129120879120879,0.6784907365567103,0.0,0.7965004793863855,0.9113808801213961,0.0,0.8507424475166411,0.7778785131459656,0.0,3640,4426,0,119,1.0,0.3333333333333333,0.0,0.0,1.0,0.0,0.0,1.0,0.0,0.0,1.0,0,0,119,292,0.13013698630136986,0.07676767676767678,0.0,0.0,0.13013698630136986,0.0,0.0,1.0,0.0,0.0,0.23030303030303031,0,0,292,8185,0.7874160048869884,0.637656608552211,0.9129120879120879,0.6784907365567103,1.0,0.7965004793863855,0.9113808801213961,0.16573816155988857,0.8507424475166411,0.7778785131459656,0.2843488649940263,3640,4426,119,0.07426233573022564,0.3819951338199513,1.0679941190537467
simple_pc1_gm_gate_t254,score_dual,0.01,qrs_visibility__le,0.1065758014715877,262,8477,0.7651291730565059,0.62287295379881,0.9123626373626373,0.6793944871215545,0.3844282238442822,0.7710703505920594,0.8912270302311797,0.1984924623115578,0.8357870894677236,0.771025641025641,0.2618061309030654,3640,4426,411,8066,0.7845276469129681,0.5444918854051752,0.9123626373626373,0.6793944871215545,0.0,0.8048957828405235,0.9106602059357964,0.0,0.8552665464846768,0.7782091097308489,0.0,3640,4426,0,119,0.9663865546218487,0.3276353276353276,0.0,0.0,0.9663865546218487,0.0,0.0,1.0,0.0,0.0,0.9829059829059829,0,0,119,292,0.14726027397260275,0.08557213930348258,0.0,0.0,0.14726027397260275,0.0,0.0,1.0,0.0,0.0,0.25671641791044775,0,0,292,8185,0.7871716554673183,0.6322781775799401,0.9123626373626373,0.6793944871215545,0.9663865546218487,0.8048957828405235,0.9095583787053841,0.15272244355909695,0.8552665464846768,0.7778065183652354,0.26376146788990823,3640,4426,119,0.07909744606992314,0.3844282238442822,1.0667260756911723
simple_pc1_gm_gate_t254,score_all_max,0.01,qrs_visibility__le,0.1065758014715877,262,8477,0.7651291730565059,0.62287295379881,0.9123626373626373,0.6793944871215545,0.3844282238442822,0.7710703505920594,0.8912270302311797,0.1984924623115578,0.8357870894677236,0.771025641025641,0.2618061309030654,3640,4426,411,8066,0.7845276469129681,0.5444918854051752,0.9123626373626373,0.6793944871215545,0.0,0.8048957828405235,0.9106602059357964,0.0,0.8552665464846768,0.7782091097308489,0.0,3640,4426,0,119,0.9663865546218487,0.3276353276353276,0.0,0.0,0.9663865546218487,0.0,0.0,1.0,0.0,0.0,0.9829059829059829,0,0,119,292,0.14726027397260275,0.08557213930348258,0.0,0.0,0.14726027397260275,0.0,0.0,1.0,0.0,0.0,0.25671641791044775,0,0,292,8185,0.7871716554673183,0.6322781775799401,0.9123626373626373,0.6793944871215545,0.9663865546218487,0.8048957828405235,0.9095583787053841,0.15272244355909695,0.8552665464846768,0.7778065183652354,0.26376146788990823,3640,4426,119,0.07909744606992314,0.3844282238442822,1.0667260756911723
simple_pc1_gm_gate_t254,score_core,0.01,qrs_visibility__le,0.1065758014715877,262,8477,0.7651291730565059,0.62287295379881,0.9123626373626373,0.6793944871215545,0.3844282238442822,0.7710703505920594,0.8912270302311797,0.1984924623115578,0.8357870894677236,0.771025641025641,0.2618061309030654,3640,4426,411,8066,0.7845276469129681,0.5444918854051752,0.9123626373626373,0.6793944871215545,0.0,0.8048957828405235,0.9106602059357964,0.0,0.8552665464846768,0.7782091097308489,0.0,3640,4426,0,119,0.9663865546218487,0.3276353276353276,0.0,0.0,0.9663865546218487,0.0,0.0,1.0,0.0,0.0,0.9829059829059829,0,0,119,292,0.14726027397260275,0.08557213930348258,0.0,0.0,0.14726027397260275,0.0,0.0,1.0,0.0,0.0,0.25671641791044775,0,0,292,8185,0.7871716554673183,0.6322781775799401,0.9123626373626373,0.6793944871215545,0.9663865546218487,0.8048957828405235,0.9095583787053841,0.15272244355909695,0.8552665464846768,0.7778065183652354,0.26376146788990823,3640,4426,119,0.07909744606992314,0.3844282238442822,1.0667260756911723
simple_pc1_gm_gate_t254,score_outlier,0.01,qrs_visibility__le,0.1065758014715877,262,8477,0.7651291730565059,0.62287295379881,0.9123626373626373,0.6793944871215545,0.3844282238442822,0.7710703505920594,0.8912270302311797,0.1984924623115578,0.8357870894677236,0.771025641025641,0.2618061309030654,3640,4426,411,8066,0.7845276469129681,0.5444918854051752,0.9123626373626373,0.6793944871215545,0.0,0.8048957828405235,0.9106602059357964,0.0,0.8552665464846768,0.7782091097308489,0.0,3640,4426,0,119,0.9663865546218487,0.3276353276353276,0.0,0.0,0.9663865546218487,0.0,0.0,1.0,0.0,0.0,0.9829059829059829,0,0,119,292,0.14726027397260275,0.08557213930348258,0.0,0.0,0.14726027397260275,0.0,0.0,1.0,0.0,0.0,0.25671641791044775,0,0,292,8185,0.7871716554673183,0.6322781775799401,0.9123626373626373,0.6793944871215545,0.9663865546218487,0.8048957828405235,0.9095583787053841,0.15272244355909695,0.8552665464846768,0.7778065183652354,0.26376146788990823,3640,4426,119,0.07909744606992314,0.3844282238442822,1.0667260756911723
simple_pc1_gm_gate_t254,score_dual,0.03,pc3__le,2.1506591515994145,151,8477,0.7704376548307185,0.6291464423920523,0.9129120879120879,0.6902394938996836,0.3722627737226277,0.7598902355362451,0.8935361216730038,0.22335766423357664,0.8294022213902409,0.7788400254939452,0.2791970802919708,3640,4426,411,8066,0.7907265063228366,0.5450579080508302,0.9129120879120879,0.6902394938996836,0.0,0.7938365981844243,0.9124850657108722,0.0,0.8492205468949655,0.7859531772575251,0.0,3640,4426,0,119,0.9831932773109243,0.3305084745762712,0.0,0.0,0.9831932773109243,0.0,0.0,1.0,0.0,0.0,0.9915254237288136,0,0,119,292,0.1232876712328767,0.07317073170731707,0.0,0.0,0.1232876712328767,0.0,0.0,1.0,0.0,0.0,0.21951219512195122,0,0,292,8185,0.7935247403787417,0.6465530252338499,0.9129120879120879,0.6902394938996836,0.9831932773109243,0.7938365981844243,0.9119402985074627,0.1802773497688752,0.8492205468949655,0.7857510288065843,0.3046875,3640,4426,119,0.06595586412100174,0.3722627737226277,1.0667017679152082
simple_pc1_gm_gate_t254,score_all_max,0.03,pc3__le,2.1506591515994145,151,8477,0.7704376548307185,0.6291464423920523,0.9129120879120879,0.6902394938996836,0.3722627737226277,0.7598902355362451,0.8935361216730038,0.22335766423357664,0.8294022213902409,0.7788400254939452,0.2791970802919708,3640,4426,411,8066,0.7907265063228366,0.5450579080508302,0.9129120879120879,0.6902394938996836,0.0,0.7938365981844243,0.9124850657108722,0.0,0.8492205468949655,0.7859531772575251,0.0,3640,4426,0,119,0.9831932773109243,0.3305084745762712,0.0,0.0,0.9831932773109243,0.0,0.0,1.0,0.0,0.0,0.9915254237288136,0,0,119,292,0.1232876712328767,0.07317073170731707,0.0,0.0,0.1232876712328767,0.0,0.0,1.0,0.0,0.0,0.21951219512195122,0,0,292,8185,0.7935247403787417,0.6465530252338499,0.9129120879120879,0.6902394938996836,0.9831932773109243,0.7938365981844243,0.9119402985074627,0.1802773497688752,0.8492205468949655,0.7857510288065843,0.3046875,3640,4426,119,0.06595586412100174,0.3722627737226277,1.0667017679152082
simple_pc1_gm_gate_t254,score_core,0.03,pc3__le,2.1506591515994145,151,8477,0.7704376548307185,0.6291464423920523,0.9129120879120879,0.6902394938996836,0.3722627737226277,0.7598902355362451,0.8935361216730038,0.22335766423357664,0.8294022213902409,0.7788400254939452,0.2791970802919708,3640,4426,411,8066,0.7907265063228366,0.5450579080508302,0.9129120879120879,0.6902394938996836,0.0,0.7938365981844243,0.9124850657108722,0.0,0.8492205468949655,0.7859531772575251,0.0,3640,4426,0,119,0.9831932773109243,0.3305084745762712,0.0,0.0,0.9831932773109243,0.0,0.0,1.0,0.0,0.0,0.9915254237288136,0,0,119,292,0.1232876712328767,0.07317073170731707,0.0,0.0,0.1232876712328767,0.0,0.0,1.0,0.0,0.0,0.21951219512195122,0,0,292,8185,0.7935247403787417,0.6465530252338499,0.9129120879120879,0.6902394938996836,0.9831932773109243,0.7938365981844243,0.9119402985074627,0.1802773497688752,0.8492205468949655,0.7857510288065843,0.3046875,3640,4426,119,0.06595586412100174,0.3722627737226277,1.0667017679152082
simple_pc1_gm_gate_t254,score_outlier,0.03,pc3__le,2.1506591515994145,151,8477,0.7704376548307185,0.6291464423920523,0.9129120879120879,0.6902394938996836,0.3722627737226277,0.7598902355362451,0.8935361216730038,0.22335766423357664,0.8294022213902409,0.7788400254939452,0.2791970802919708,3640,4426,411,8066,0.7907265063228366,0.5450579080508302,0.9129120879120879,0.6902394938996836,0.0,0.7938365981844243,0.9124850657108722,0.0,0.8492205468949655,0.7859531772575251,0.0,3640,4426,0,119,0.9831932773109243,0.3305084745762712,0.0,0.0,0.9831932773109243,0.0,0.0,1.0,0.0,0.0,0.9915254237288136,0,0,119,292,0.1232876712328767,0.07317073170731707,0.0,0.0,0.1232876712328767,0.0,0.0,1.0,0.0,0.0,0.21951219512195122,0,0,292,8185,0.7935247403787417,0.6465530252338499,0.9129120879120879,0.6902394938996836,0.9831932773109243,0.7938365981844243,0.9119402985074627,0.1802773497688752,0.8492205468949655,0.7857510288065843,0.3046875,3640,4426,119,0.06595586412100174,0.3722627737226277,1.0667017679152082
simple_pc1_gm_gate_t254,score_dual,0.01,pc1__ge,-5.359154835604749,216,8477,0.7646573080099092,0.6233853712351107,0.9129120879120879,0.6784907365567103,0.3795620437956204,0.7614573785517873,0.8929527207850134,0.208,0.8303348325837081,0.7710874309924252,0.268733850129199,3640,4426,411,8066,0.7842796925365733,0.5426922663111173,0.9129120879120879,0.6784907365567103,0.0,0.7955470433325353,0.9113808801213961,0.0,0.8501982857873864,0.7778785131459656,0.0,3640,4426,0,119,1.0,0.3333333333333333,0.0,0.0,1.0,0.0,0.0,1.0,0.0,0.0,1.0,0,0,119,292,0.1267123287671233,0.07497467071935157,0.0,0.0,0.1267123287671233,0.0,0.0,1.0,0.0,0.0,0.22492401215805471,0,0,292,8185,0.7874160048869884,0.6380448304136814,0.9129120879120879,0.6784907365567103,1.0,0.7955470433325353,0.9113808801213961,0.16690042075736325,0.8501982857873864,0.7778785131459656,0.2860576923076923,3640,4426,119,0.07364244978923878,0.3795620437956204,1.066510872653445
simple_pc1_gm_gate_t254,score_all_max,0.01,pc1__ge,-5.359154835604749,216,8477,0.7646573080099092,0.6233853712351107,0.9129120879120879,0.6784907365567103,0.3795620437956204,0.7614573785517873,0.8929527207850134,0.208,0.8303348325837081,0.7710874309924252,0.268733850129199,3640,4426,411,8066,0.7842796925365733,0.5426922663111173,0.9129120879120879,0.6784907365567103,0.0,0.7955470433325353,0.9113808801213961,0.0,0.8501982857873864,0.7778785131459656,0.0,3640,4426,0,119,1.0,0.3333333333333333,0.0,0.0,1.0,0.0,0.0,1.0,0.0,0.0,1.0,0,0,119,292,0.1267123287671233,0.07497467071935157,0.0,0.0,0.1267123287671233,0.0,0.0,1.0,0.0,0.0,0.22492401215805471,0,0,292,8185,0.7874160048869884,0.6380448304136814,0.9129120879120879,0.6784907365567103,1.0,0.7955470433325353,0.9113808801213961,0.16690042075736325,0.8501982857873864,0.7778785131459656,0.2860576923076923,3640,4426,119,0.07364244978923878,0.3795620437956204,1.066510872653445
simple_pc1_gm_gate_t254,score_core,0.01,pc1__ge,-5.359154835604749,216,8477,0.7646573080099092,0.6233853712351107,0.9129120879120879,0.6784907365567103,0.3795620437956204,0.7614573785517873,0.8929527207850134,0.208,0.8303348325837081,0.7710874309924252,0.268733850129199,3640,4426,411,8066,0.7842796925365733,0.5426922663111173,0.9129120879120879,0.6784907365567103,0.0,0.7955470433325353,0.9113808801213961,0.0,0.8501982857873864,0.7778785131459656,0.0,3640,4426,0,119,1.0,0.3333333333333333,0.0,0.0,1.0,0.0,0.0,1.0,0.0,0.0,1.0,0,0,119,292,0.1267123287671233,0.07497467071935157,0.0,0.0,0.1267123287671233,0.0,0.0,1.0,0.0,0.0,0.22492401215805471,0,0,292,8185,0.7874160048869884,0.6380448304136814,0.9129120879120879,0.6784907365567103,1.0,0.7955470433325353,0.9113808801213961,0.16690042075736325,0.8501982857873864,0.7778785131459656,0.2860576923076923,3640,4426,119,0.07364244978923878,0.3795620437956204,1.066510872653445
simple_pc1_gm_gate_t254,score_outlier,0.01,pc1__ge,-5.359154835604749,216,8477,0.7646573080099092,0.6233853712351107,0.9129120879120879,0.6784907365567103,0.3795620437956204,0.7614573785517873,0.8929527207850134,0.208,0.8303348325837081,0.7710874309924252,0.268733850129199,3640,4426,411,8066,0.7842796925365733,0.5426922663111173,0.9129120879120879,0.6784907365567103,0.0,0.7955470433325353,0.9113808801213961,0.0,0.8501982857873864,0.7778785131459656,0.0,3640,4426,0,119,1.0,0.3333333333333333,0.0,0.0,1.0,0.0,0.0,1.0,0.0,0.0,1.0,0,0,119,292,0.1267123287671233,0.07497467071935157,0.0,0.0,0.1267123287671233,0.0,0.0,1.0,0.0,0.0,0.22492401215805471,0,0,292,8185,0.7874160048869884,0.6380448304136814,0.9129120879120879,0.6784907365567103,1.0,0.7955470433325353,0.9113808801213961,0.16690042075736325,0.8501982857873864,0.7778785131459656,0.2860576923076923,3640,4426,119,0.07364244978923878,0.3795620437956204,1.066510872653445
simple_pc1_gm_gate_t254,score_dual,0.01,pc2__ge,-1.0634046292314407,269,8477,0.7646573080099092,0.6222584253931499,0.9123626373626373,0.6784907365567103,0.3844282238442822,0.7710703505920594,0.8918918918918919,0.19676214196762143,0.8357870894677236,0.7706916463492878,0.2602965403624382,3640,4426,411,8066,0.7840317381601786,0.5443816865435475,0.9123626373626373,0.6784907365567103,0.0,0.8048957828405235,0.9113808801213961,0.0,0.8552665464846768,0.7778785131459656,0.0,3640,4426,0,119,0.9663865546218487,0.3276353276353276,0.0,0.0,0.9663865546218487,0.0,0.0,1.0,0.0,0.0,0.9829059829059829,0,0,119,292,0.14726027397260275,0.08557213930348258,0.0,0.0,0.14726027397260275,0.0,0.0,1.0,0.0,0.0,0.25671641791044775,0,0,292,8185,0.786682956627978,0.6314677510081815,0.9123626373626373,0.6784907365567103,0.9663865546218487,0.8048957828405235,0.9102758411639891,0.1513157894736842,0.8552665464846768,0.7774757281553398,0.2616609783845279,3640,4426,119,0.07996528638730474,0.3844282238442822,1.0662542106445756
simple_pc1_gm_gate_t254,score_all_max,0.01,pc2__ge,-1.0634046292314407,269,8477,0.7646573080099092,0.6222584253931499,0.9123626373626373,0.6784907365567103,0.3844282238442822,0.7710703505920594,0.8918918918918919,0.19676214196762143,0.8357870894677236,0.7706916463492878,0.2602965403624382,3640,4426,411,8066,0.7840317381601786,0.5443816865435475,0.9123626373626373,0.6784907365567103,0.0,0.8048957828405235,0.9113808801213961,0.0,0.8552665464846768,0.7778785131459656,0.0,3640,4426,0,119,0.9663865546218487,0.3276353276353276,0.0,0.0,0.9663865546218487,0.0,0.0,1.0,0.0,0.0,0.9829059829059829,0,0,119,292,0.14726027397260275,0.08557213930348258,0.0,0.0,0.14726027397260275,0.0,0.0,1.0,0.0,0.0,0.25671641791044775,0,0,292,8185,0.786682956627978,0.6314677510081815,0.9123626373626373,0.6784907365567103,0.9663865546218487,0.8048957828405235,0.9102758411639891,0.1513157894736842,0.8552665464846768,0.7774757281553398,0.2616609783845279,3640,4426,119,0.07996528638730474,0.3844282238442822,1.0662542106445756
simple_pc1_gm_gate_t254,score_core,0.01,pc2__ge,-1.0634046292314407,269,8477,0.7646573080099092,0.6222584253931499,0.9123626373626373,0.6784907365567103,0.3844282238442822,0.7710703505920594,0.8918918918918919,0.19676214196762143,0.8357870894677236,0.7706916463492878,0.2602965403624382,3640,4426,411,8066,0.7840317381601786,0.5443816865435475,0.9123626373626373,0.6784907365567103,0.0,0.8048957828405235,0.9113808801213961,0.0,0.8552665464846768,0.7778785131459656,0.0,3640,4426,0,119,0.9663865546218487,0.3276353276353276,0.0,0.0,0.9663865546218487,0.0,0.0,1.0,0.0,0.0,0.9829059829059829,0,0,119,292,0.14726027397260275,0.08557213930348258,0.0,0.0,0.14726027397260275,0.0,0.0,1.0,0.0,0.0,0.25671641791044775,0,0,292,8185,0.786682956627978,0.6314677510081815,0.9123626373626373,0.6784907365567103,0.9663865546218487,0.8048957828405235,0.9102758411639891,0.1513157894736842,0.8552665464846768,0.7774757281553398,0.2616609783845279,3640,4426,119,0.07996528638730474,0.3844282238442822,1.0662542106445756
simple_pc1_gm_gate_t254,score_outlier,0.01,pc2__ge,-1.0634046292314407,269,8477,0.7646573080099092,0.6222584253931499,0.9123626373626373,0.6784907365567103,0.3844282238442822,0.7710703505920594,0.8918918918918919,0.19676214196762143,0.8357870894677236,0.7706916463492878,0.2602965403624382,3640,4426,411,8066,0.7840317381601786,0.5443816865435475,0.9123626373626373,0.6784907365567103,0.0,0.8048957828405235,0.9113808801213961,0.0,0.8552665464846768,0.7778785131459656,0.0,3640,4426,0,119,0.9663865546218487,0.3276353276353276,0.0,0.0,0.9663865546218487,0.0,0.0,1.0,0.0,0.0,0.9829059829059829,0,0,119,292,0.14726027397260275,0.08557213930348258,0.0,0.0,0.14726027397260275,0.0,0.0,1.0,0.0,0.0,0.25671641791044775,0,0,292,8185,0.786682956627978,0.6314677510081815,0.9123626373626373,0.6784907365567103,0.9663865546218487,0.8048957828405235,0.9102758411639891,0.1513157894736842,0.8552665464846768,0.7774757281553398,0.2616609783845279,3640,4426,119,0.07996528638730474,0.3844282238442822,1.0662542106445756
simple_pc1_gm_gate_t254,score_dual,0.03,none,,167,8477,0.7685501946443317,0.6269754794051764,0.9129120879120879,0.6866244916403073,0.3722627737226277,0.7598902355362451,0.8930355568615927,0.21825962910128388,0.8294022213902409,0.7763443607101801,0.2751798561151079,3640,4426,411,8066,0.7887428713116786,0.5442232965030138,0.9129120879120879,0.6866244916403073,0.0,0.7938365981844243,0.9120648259303722,0.0,0.8492205468949655,0.7834493426140758,0.0,3640,4426,0,119,0.9831932773109243,0.3305084745762712,0.0,0.0,0.9831932773109243,0.0,0.0,1.0,0.0,0.0,0.9915254237288136,0,0,119,292,0.1232876712328767,0.07317073170731707,0.0,0.0,0.1232876712328767,0.0,0.0,1.0,0.0,0.0,0.21951219512195122,0,0,292,8185,0.7915699450213806,0.6436457857768266,0.9129120879120879,0.6866244916403073,0.9831932773109243,0.7938365981844243,0.9115176964607079,0.17593984962406015,0.8492205468949655,0.7832474226804124,0.29846938775510207,3640,4426,119,0.06793949913215969,0.3722627737226277,1.0648143077288215
simple_pc1_gm_gate_t254,score_dual,0.03,pc3__le,3.281193089810729,167,8477,0.7685501946443317,0.6269754794051764,0.9129120879120879,0.6866244916403073,0.3722627737226277,0.7598902355362451,0.8930355568615927,0.21825962910128388,0.8294022213902409,0.7763443607101801,0.2751798561151079,3640,4426,411,8066,0.7887428713116786,0.5442232965030138,0.9129120879120879,0.6866244916403073,0.0,0.7938365981844243,0.9120648259303722,0.0,0.8492205468949655,0.7834493426140758,0.0,3640,4426,0,119,0.9831932773109243,0.3305084745762712,0.0,0.0,0.9831932773109243,0.0,0.0,1.0,0.0,0.0,0.9915254237288136,0,0,119,292,0.1232876712328767,0.07317073170731707,0.0,0.0,0.1232876712328767,0.0,0.0,1.0,0.0,0.0,0.21951219512195122,0,0,292,8185,0.7915699450213806,0.6436457857768266,0.9129120879120879,0.6866244916403073,0.9831932773109243,0.7938365981844243,0.9115176964607079,0.17593984962406015,0.8492205468949655,0.7832474226804124,0.29846938775510207,3640,4426,119,0.06793949913215969,0.3722627737226277,1.0648143077288215
simple_pc1_gm_gate_t254,score_dual,0.03,qrs_visibility__le,0.2800807397384144,167,8477,0.7685501946443317,0.6269754794051764,0.9129120879120879,0.6866244916403073,0.3722627737226277,0.7598902355362451,0.8930355568615927,0.21825962910128388,0.8294022213902409,0.7763443607101801,0.2751798561151079,3640,4426,411,8066,0.7887428713116786,0.5442232965030138,0.9129120879120879,0.6866244916403073,0.0,0.7938365981844243,0.9120648259303722,0.0,0.8492205468949655,0.7834493426140758,0.0,3640,4426,0,119,0.9831932773109243,0.3305084745762712,0.0,0.0,0.9831932773109243,0.0,0.0,1.0,0.0,0.0,0.9915254237288136,0,0,119,292,0.1232876712328767,0.07317073170731707,0.0,0.0,0.1232876712328767,0.0,0.0,1.0,0.0,0.0,0.21951219512195122,0,0,292,8185,0.7915699450213806,0.6436457857768266,0.9129120879120879,0.6866244916403073,0.9831932773109243,0.7938365981844243,0.9115176964607079,0.17593984962406015,0.8492205468949655,0.7832474226804124,0.29846938775510207,3640,4426,119,0.06793949913215969,0.3722627737226277,1.0648143077288215
simple_pc1_gm_gate_t254,score_dual,0.03,qrs_visibility__le,0.3732307518330272,167,8477,0.7685501946443317,0.6269754794051764,0.9129120879120879,0.6866244916403073,0.3722627737226277,0.7598902355362451,0.8930355568615927,0.21825962910128388,0.8294022213902409,0.7763443607101801,0.2751798561151079,3640,4426,411,8066,0.7887428713116786,0.5442232965030138,0.9129120879120879,0.6866244916403073,0.0,0.7938365981844243,0.9120648259303722,0.0,0.8492205468949655,0.7834493426140758,0.0,3640,4426,0,119,0.9831932773109243,0.3305084745762712,0.0,0.0,0.9831932773109243,0.0,0.0,1.0,0.0,0.0,0.9915254237288136,0,0,119,292,0.1232876712328767,0.07317073170731707,0.0,0.0,0.1232876712328767,0.0,0.0,1.0,0.0,0.0,0.21951219512195122,0,0,292,8185,0.7915699450213806,0.6436457857768266,0.9129120879120879,0.6866244916403073,0.9831932773109243,0.7938365981844243,0.9115176964607079,0.17593984962406015,0.8492205468949655,0.7832474226804124,0.29846938775510207,3640,4426,119,0.06793949913215969,0.3722627737226277,1.0648143077288215
simple_pc1_gm_gate_t254,score_all_max,0.03,none,,167,8477,0.7685501946443317,0.6269754794051764,0.9129120879120879,0.6866244916403073,0.3722627737226277,0.7598902355362451,0.8930355568615927,0.21825962910128388,0.8294022213902409,0.7763443607101801,0.2751798561151079,3640,4426,411,8066,0.7887428713116786,0.5442232965030138,0.9129120879120879,0.6866244916403073,0.0,0.7938365981844243,0.9120648259303722,0.0,0.8492205468949655,0.7834493426140758,0.0,3640,4426,0,119,0.9831932773109243,0.3305084745762712,0.0,0.0,0.9831932773109243,0.0,0.0,1.0,0.0,0.0,0.9915254237288136,0,0,119,292,0.1232876712328767,0.07317073170731707,0.0,0.0,0.1232876712328767,0.0,0.0,1.0,0.0,0.0,0.21951219512195122,0,0,292,8185,0.7915699450213806,0.6436457857768266,0.9129120879120879,0.6866244916403073,0.9831932773109243,0.7938365981844243,0.9115176964607079,0.17593984962406015,0.8492205468949655,0.7832474226804124,0.29846938775510207,3640,4426,119,0.06793949913215969,0.3722627737226277,1.0648143077288215
simple_pc1_gm_gate_t254,score_all_max,0.03,pc3__le,3.281193089810729,167,8477,0.7685501946443317,0.6269754794051764,0.9129120879120879,0.6866244916403073,0.3722627737226277,0.7598902355362451,0.8930355568615927,0.21825962910128388,0.8294022213902409,0.7763443607101801,0.2751798561151079,3640,4426,411,8066,0.7887428713116786,0.5442232965030138,0.9129120879120879,0.6866244916403073,0.0,0.7938365981844243,0.9120648259303722,0.0,0.8492205468949655,0.7834493426140758,0.0,3640,4426,0,119,0.9831932773109243,0.3305084745762712,0.0,0.0,0.9831932773109243,0.0,0.0,1.0,0.0,0.0,0.9915254237288136,0,0,119,292,0.1232876712328767,0.07317073170731707,0.0,0.0,0.1232876712328767,0.0,0.0,1.0,0.0,0.0,0.21951219512195122,0,0,292,8185,0.7915699450213806,0.6436457857768266,0.9129120879120879,0.6866244916403073,0.9831932773109243,0.7938365981844243,0.9115176964607079,0.17593984962406015,0.8492205468949655,0.7832474226804124,0.29846938775510207,3640,4426,119,0.06793949913215969,0.3722627737226277,1.0648143077288215
simple_pc1_gm_gate_t254,score_all_max,0.03,qrs_visibility__le,0.2800807397384144,167,8477,0.7685501946443317,0.6269754794051764,0.9129120879120879,0.6866244916403073,0.3722627737226277,0.7598902355362451,0.8930355568615927,0.21825962910128388,0.8294022213902409,0.7763443607101801,0.2751798561151079,3640,4426,411,8066,0.7887428713116786,0.5442232965030138,0.9129120879120879,0.6866244916403073,0.0,0.7938365981844243,0.9120648259303722,0.0,0.8492205468949655,0.7834493426140758,0.0,3640,4426,0,119,0.9831932773109243,0.3305084745762712,0.0,0.0,0.9831932773109243,0.0,0.0,1.0,0.0,0.0,0.9915254237288136,0,0,119,292,0.1232876712328767,0.07317073170731707,0.0,0.0,0.1232876712328767,0.0,0.0,1.0,0.0,0.0,0.21951219512195122,0,0,292,8185,0.7915699450213806,0.6436457857768266,0.9129120879120879,0.6866244916403073,0.9831932773109243,0.7938365981844243,0.9115176964607079,0.17593984962406015,0.8492205468949655,0.7832474226804124,0.29846938775510207,3640,4426,119,0.06793949913215969,0.3722627737226277,1.0648143077288215
simple_pc1_gm_gate_t254,score_all_max,0.03,qrs_visibility__le,0.3732307518330272,167,8477,0.7685501946443317,0.6269754794051764,0.9129120879120879,0.6866244916403073,0.3722627737226277,0.7598902355362451,0.8930355568615927,0.21825962910128388,0.8294022213902409,0.7763443607101801,0.2751798561151079,3640,4426,411,8066,0.7887428713116786,0.5442232965030138,0.9129120879120879,0.6866244916403073,0.0,0.7938365981844243,0.9120648259303722,0.0,0.8492205468949655,0.7834493426140758,0.0,3640,4426,0,119,0.9831932773109243,0.3305084745762712,0.0,0.0,0.9831932773109243,0.0,0.0,1.0,0.0,0.0,0.9915254237288136,0,0,119,292,0.1232876712328767,0.07317073170731707,0.0,0.0,0.1232876712328767,0.0,0.0,1.0,0.0,0.0,0.21951219512195122,0,0,292,8185,0.7915699450213806,0.6436457857768266,0.9129120879120879,0.6866244916403073,0.9831932773109243,0.7938365981844243,0.9115176964607079,0.17593984962406015,0.8492205468949655,0.7832474226804124,0.29846938775510207,3640,4426,119,0.06793949913215969,0.3722627737226277,1.0648143077288215
simple_pc1_gm_gate_t254,score_core,0.03,none,,167,8477,0.7685501946443317,0.6269754794051764,0.9129120879120879,0.6866244916403073,0.3722627737226277,0.7598902355362451,0.8930355568615927,0.21825962910128388,0.8294022213902409,0.7763443607101801,0.2751798561151079,3640,4426,411,8066,0.7887428713116786,0.5442232965030138,0.9129120879120879,0.6866244916403073,0.0,0.7938365981844243,0.9120648259303722,0.0,0.8492205468949655,0.7834493426140758,0.0,3640,4426,0,119,0.9831932773109243,0.3305084745762712,0.0,0.0,0.9831932773109243,0.0,0.0,1.0,0.0,0.0,0.9915254237288136,0,0,119,292,0.1232876712328767,0.07317073170731707,0.0,0.0,0.1232876712328767,0.0,0.0,1.0,0.0,0.0,0.21951219512195122,0,0,292,8185,0.7915699450213806,0.6436457857768266,0.9129120879120879,0.6866244916403073,0.9831932773109243,0.7938365981844243,0.9115176964607079,0.17593984962406015,0.8492205468949655,0.7832474226804124,0.29846938775510207,3640,4426,119,0.06793949913215969,0.3722627737226277,1.0648143077288215
simple_pc1_gm_gate_t254,score_core,0.03,pc3__le,3.281193089810729,167,8477,0.7685501946443317,0.6269754794051764,0.9129120879120879,0.6866244916403073,0.3722627737226277,0.7598902355362451,0.8930355568615927,0.21825962910128388,0.8294022213902409,0.7763443607101801,0.2751798561151079,3640,4426,411,8066,0.7887428713116786,0.5442232965030138,0.9129120879120879,0.6866244916403073,0.0,0.7938365981844243,0.9120648259303722,0.0,0.8492205468949655,0.7834493426140758,0.0,3640,4426,0,119,0.9831932773109243,0.3305084745762712,0.0,0.0,0.9831932773109243,0.0,0.0,1.0,0.0,0.0,0.9915254237288136,0,0,119,292,0.1232876712328767,0.07317073170731707,0.0,0.0,0.1232876712328767,0.0,0.0,1.0,0.0,0.0,0.21951219512195122,0,0,292,8185,0.7915699450213806,0.6436457857768266,0.9129120879120879,0.6866244916403073,0.9831932773109243,0.7938365981844243,0.9115176964607079,0.17593984962406015,0.8492205468949655,0.7832474226804124,0.29846938775510207,3640,4426,119,0.06793949913215969,0.3722627737226277,1.0648143077288215
simple_pc1_gm_gate_t254,score_core,0.03,qrs_visibility__le,0.2800807397384144,167,8477,0.7685501946443317,0.6269754794051764,0.9129120879120879,0.6866244916403073,0.3722627737226277,0.7598902355362451,0.8930355568615927,0.21825962910128388,0.8294022213902409,0.7763443607101801,0.2751798561151079,3640,4426,411,8066,0.7887428713116786,0.5442232965030138,0.9129120879120879,0.6866244916403073,0.0,0.7938365981844243,0.9120648259303722,0.0,0.8492205468949655,0.7834493426140758,0.0,3640,4426,0,119,0.9831932773109243,0.3305084745762712,0.0,0.0,0.9831932773109243,0.0,0.0,1.0,0.0,0.0,0.9915254237288136,0,0,119,292,0.1232876712328767,0.07317073170731707,0.0,0.0,0.1232876712328767,0.0,0.0,1.0,0.0,0.0,0.21951219512195122,0,0,292,8185,0.7915699450213806,0.6436457857768266,0.9129120879120879,0.6866244916403073,0.9831932773109243,0.7938365981844243,0.9115176964607079,0.17593984962406015,0.8492205468949655,0.7832474226804124,0.29846938775510207,3640,4426,119,0.06793949913215969,0.3722627737226277,1.0648143077288215
simple_pc1_gm_gate_t254,score_core,0.03,qrs_visibility__le,0.3732307518330272,167,8477,0.7685501946443317,0.6269754794051764,0.9129120879120879,0.6866244916403073,0.3722627737226277,0.7598902355362451,0.8930355568615927,0.21825962910128388,0.8294022213902409,0.7763443607101801,0.2751798561151079,3640,4426,411,8066,0.7887428713116786,0.5442232965030138,0.9129120879120879,0.6866244916403073,0.0,0.7938365981844243,0.9120648259303722,0.0,0.8492205468949655,0.7834493426140758,0.0,3640,4426,0,119,0.9831932773109243,0.3305084745762712,0.0,0.0,0.9831932773109243,0.0,0.0,1.0,0.0,0.0,0.9915254237288136,0,0,119,292,0.1232876712328767,0.07317073170731707,0.0,0.0,0.1232876712328767,0.0,0.0,1.0,0.0,0.0,0.21951219512195122,0,0,292,8185,0.7915699450213806,0.6436457857768266,0.9129120879120879,0.6866244916403073,0.9831932773109243,0.7938365981844243,0.9115176964607079,0.17593984962406015,0.8492205468949655,0.7832474226804124,0.29846938775510207,3640,4426,119,0.06793949913215969,0.3722627737226277,1.0648143077288215
simple_pc1_gm_gate_t254,score_outlier,0.03,none,,167,8477,0.7685501946443317,0.6269754794051764,0.9129120879120879,0.6866244916403073,0.3722627737226277,0.7598902355362451,0.8930355568615927,0.21825962910128388,0.8294022213902409,0.7763443607101801,0.2751798561151079,3640,4426,411,8066,0.7887428713116786,0.5442232965030138,0.9129120879120879,0.6866244916403073,0.0,0.7938365981844243,0.9120648259303722,0.0,0.8492205468949655,0.7834493426140758,0.0,3640,4426,0,119,0.9831932773109243,0.3305084745762712,0.0,0.0,0.9831932773109243,0.0,0.0,1.0,0.0,0.0,0.9915254237288136,0,0,119,292,0.1232876712328767,0.07317073170731707,0.0,0.0,0.1232876712328767,0.0,0.0,1.0,0.0,0.0,0.21951219512195122,0,0,292,8185,0.7915699450213806,0.6436457857768266,0.9129120879120879,0.6866244916403073,0.9831932773109243,0.7938365981844243,0.9115176964607079,0.17593984962406015,0.8492205468949655,0.7832474226804124,0.29846938775510207,3640,4426,119,0.06793949913215969,0.3722627737226277,1.0648143077288215
simple_pc1_gm_gate_t254,score_outlier,0.03,pc3__le,3.281193089810729,167,8477,0.7685501946443317,0.6269754794051764,0.9129120879120879,0.6866244916403073,0.3722627737226277,0.7598902355362451,0.8930355568615927,0.21825962910128388,0.8294022213902409,0.7763443607101801,0.2751798561151079,3640,4426,411,8066,0.7887428713116786,0.5442232965030138,0.9129120879120879,0.6866244916403073,0.0,0.7938365981844243,0.9120648259303722,0.0,0.8492205468949655,0.7834493426140758,0.0,3640,4426,0,119,0.9831932773109243,0.3305084745762712,0.0,0.0,0.9831932773109243,0.0,0.0,1.0,0.0,0.0,0.9915254237288136,0,0,119,292,0.1232876712328767,0.07317073170731707,0.0,0.0,0.1232876712328767,0.0,0.0,1.0,0.0,0.0,0.21951219512195122,0,0,292,8185,0.7915699450213806,0.6436457857768266,0.9129120879120879,0.6866244916403073,0.9831932773109243,0.7938365981844243,0.9115176964607079,0.17593984962406015,0.8492205468949655,0.7832474226804124,0.29846938775510207,3640,4426,119,0.06793949913215969,0.3722627737226277,1.0648143077288215
simple_pc1_gm_gate_t254,score_outlier,0.03,qrs_visibility__le,0.2800807397384144,167,8477,0.7685501946443317,0.6269754794051764,0.9129120879120879,0.6866244916403073,0.3722627737226277,0.7598902355362451,0.8930355568615927,0.21825962910128388,0.8294022213902409,0.7763443607101801,0.2751798561151079,3640,4426,411,8066,0.7887428713116786,0.5442232965030138,0.9129120879120879,0.6866244916403073,0.0,0.7938365981844243,0.9120648259303722,0.0,0.8492205468949655,0.7834493426140758,0.0,3640,4426,0,119,0.9831932773109243,0.3305084745762712,0.0,0.0,0.9831932773109243,0.0,0.0,1.0,0.0,0.0,0.9915254237288136,0,0,119,292,0.1232876712328767,0.07317073170731707,0.0,0.0,0.1232876712328767,0.0,0.0,1.0,0.0,0.0,0.21951219512195122,0,0,292,8185,0.7915699450213806,0.6436457857768266,0.9129120879120879,0.6866244916403073,0.9831932773109243,0.7938365981844243,0.9115176964607079,0.17593984962406015,0.8492205468949655,0.7832474226804124,0.29846938775510207,3640,4426,119,0.06793949913215969,0.3722627737226277,1.0648143077288215
simple_pc1_gm_gate_t254,score_outlier,0.03,qrs_visibility__le,0.3732307518330272,167,8477,0.7685501946443317,0.6269754794051764,0.9129120879120879,0.6866244916403073,0.3722627737226277,0.7598902355362451,0.8930355568615927,0.21825962910128388,0.8294022213902409,0.7763443607101801,0.2751798561151079,3640,4426,411,8066,0.7887428713116786,0.5442232965030138,0.9129120879120879,0.6866244916403073,0.0,0.7938365981844243,0.9120648259303722,0.0,0.8492205468949655,0.7834493426140758,0.0,3640,4426,0,119,0.9831932773109243,0.3305084745762712,0.0,0.0,0.9831932773109243,0.0,0.0,1.0,0.0,0.0,0.9915254237288136,0,0,119,292,0.1232876712328767,0.07317073170731707,0.0,0.0,0.1232876712328767,0.0,0.0,1.0,0.0,0.0,0.21951219512195122,0,0,292,8185,0.7915699450213806,0.6436457857768266,0.9129120879120879,0.6866244916403073,0.9831932773109243,0.7938365981844243,0.9115176964607079,0.17593984962406015,0.8492205468949655,0.7832474226804124,0.29846938775510207,3640,4426,119,0.06793949913215969,0.3722627737226277,1.0648143077288215
simple_pc1_gm_gate_t254,score_dual,0.02,pc1__ge,-6.099036591134506,181,8477,0.7670166332428925,0.6251845565111736,0.9131868131868132,0.6834613646633529,0.3722627737226277,0.7597714285714285,0.8931207558311189,0.213986013986014,0.8294447910168434,0.7743504415717394,0.27175843694493784,3640,4426,411,8066,0.7871311678651128,0.5435753684300196,0.9131868131868132,0.6834613646633529,0.0,0.7940754897276636,0.9116937914406269,0.0,0.8494761052900588,0.78125,0.0,3640,4426,0,119,0.9915966386554622,0.33192686357243323,0.0,0.0,0.9915966386554622,0.0,0.0,1.0,0.0,0.0,0.9957805907172996,0,0,119,292,0.11986301369863013,0.07135575942915393,0.0,0.0,0.11986301369863013,0.0,0.0,1.0,0.0,0.0,0.21406727828746178,0,0,292,8185,0.7901038485033598,0.6419981484248108,0.9131868131868132,0.6834613646633529,0.9915966386554622,0.7940754897276636,0.9114191021391985,0.17352941176470588,0.8494761052900588,0.7811491284699806,0.295369211514393,3640,4426,119,0.06967517976692289,0.3722627737226277,1.064027551898926
simple_pc1_gm_gate_t254,score_all_max,0.02,pc1__ge,-6.099036591134506,181,8477,0.7670166332428925,0.6251845565111736,0.9131868131868132,0.6834613646633529,0.3722627737226277,0.7597714285714285,0.8931207558311189,0.213986013986014,0.8294447910168434,0.7743504415717394,0.27175843694493784,3640,4426,411,8066,0.7871311678651128,0.5435753684300196,0.9131868131868132,0.6834613646633529,0.0,0.7940754897276636,0.9116937914406269,0.0,0.8494761052900588,0.78125,0.0,3640,4426,0,119,0.9915966386554622,0.33192686357243323,0.0,0.0,0.9915966386554622,0.0,0.0,1.0,0.0,0.0,0.9957805907172996,0,0,119,292,0.11986301369863013,0.07135575942915393,0.0,0.0,0.11986301369863013,0.0,0.0,1.0,0.0,0.0,0.21406727828746178,0,0,292,8185,0.7901038485033598,0.6419981484248108,0.9131868131868132,0.6834613646633529,0.9915966386554622,0.7940754897276636,0.9114191021391985,0.17352941176470588,0.8494761052900588,0.7811491284699806,0.295369211514393,3640,4426,119,0.06967517976692289,0.3722627737226277,1.064027551898926
simple_pc1_gm_gate_t254,score_core,0.02,pc1__ge,-6.099036591134506,181,8477,0.7670166332428925,0.6251845565111736,0.9131868131868132,0.6834613646633529,0.3722627737226277,0.7597714285714285,0.8931207558311189,0.213986013986014,0.8294447910168434,0.7743504415717394,0.27175843694493784,3640,4426,411,8066,0.7871311678651128,0.5435753684300196,0.9131868131868132,0.6834613646633529,0.0,0.7940754897276636,0.9116937914406269,0.0,0.8494761052900588,0.78125,0.0,3640,4426,0,119,0.9915966386554622,0.33192686357243323,0.0,0.0,0.9915966386554622,0.0,0.0,1.0,0.0,0.0,0.9957805907172996,0,0,119,292,0.11986301369863013,0.07135575942915393,0.0,0.0,0.11986301369863013,0.0,0.0,1.0,0.0,0.0,0.21406727828746178,0,0,292,8185,0.7901038485033598,0.6419981484248108,0.9131868131868132,0.6834613646633529,0.9915966386554622,0.7940754897276636,0.9114191021391985,0.17352941176470588,0.8494761052900588,0.7811491284699806,0.295369211514393,3640,4426,119,0.06967517976692289,0.3722627737226277,1.064027551898926
simple_pc1_gm_gate_t254,score_outlier,0.02,pc1__ge,-6.099036591134506,181,8477,0.7670166332428925,0.6251845565111736,0.9131868131868132,0.6834613646633529,0.3722627737226277,0.7597714285714285,0.8931207558311189,0.213986013986014,0.8294447910168434,0.7743504415717394,0.27175843694493784,3640,4426,411,8066,0.7871311678651128,0.5435753684300196,0.9131868131868132,0.6834613646633529,0.0,0.7940754897276636,0.9116937914406269,0.0,0.8494761052900588,0.78125,0.0,3640,4426,0,119,0.9915966386554622,0.33192686357243323,0.0,0.0,0.9915966386554622,0.0,0.0,1.0,0.0,0.0,0.9957805907172996,0,0,119,292,0.11986301369863013,0.07135575942915393,0.0,0.0,0.11986301369863013,0.0,0.0,1.0,0.0,0.0,0.21406727828746178,0,0,292,8185,0.7901038485033598,0.6419981484248108,0.9131868131868132,0.6834613646633529,0.9915966386554622,0.7940754897276636,0.9114191021391985,0.17352941176470588,0.8494761052900588,0.7811491284699806,0.295369211514393,3640,4426,119,0.06967517976692289,0.3722627737226277,1.064027551898926
simple_pc1_gm_gate_t254,score_dual,0.02,pc1__ge,-5.359154835604749,155,8477,0.7670166332428925,0.6259085478870107,0.9134615384615384,0.6834613646633529,0.36982968369829683,0.7555101113383322,0.8931207558311189,0.22060957910014514,0.827011565725656,0.7743504415717394,0.27636363636363637,3640,4426,411,8066,0.7872551450533102,0.5427586188595933,0.9134615384615384,0.6834613646633529,0.0,0.7895986701496082,0.9116937914406269,0.0,0.8470258565787798,0.78125,0.0,3640,4426,0,119,0.9915966386554622,0.33192686357243323,0.0,0.0,0.9915966386554622,0.0,0.0,1.0,0.0,0.0,0.9957805907172996,0,0,119,292,0.11643835616438356,0.06952965235173823,0.0,0.0,0.11643835616438356,0.0,0.0,1.0,0.0,0.0,0.2085889570552147,0,0,292,8185,0.7902260232131949,0.6443615152574248,0.9134615384615384,0.6834613646633529,0.9915966386554622,0.7895986701496082,0.9114191021391985,0.1801526717557252,0.8470258565787798,0.7811491284699806,0.3049095607235142,3640,4426,119,0.0665757500619886,0.36982968369829683,1.0626622717602732
simple_pc1_gm_gate_t254,score_dual,0.02,pc3__ge,-2.4479177605053817,158,8477,0.7670166332428925,0.6257608792820484,0.9134615384615384,0.6834613646633529,0.36982968369829683,0.7560254661209641,0.8931207558311189,0.21965317919075145,0.8273202289126649,0.7743504415717394,0.2756119673617407,3640,4426,411,8066,0.7872551450533102,0.542866547740401,0.9134615384615384,0.6834613646633529,0.0,0.7901615969581749,0.9116937914406269,0.0,0.8473496432212029,0.78125,0.0,3640,4426,0,119,0.9915966386554622,0.33192686357243323,0.0,0.0,0.9915966386554622,0.0,0.0,1.0,0.0,0.0,0.9957805907172996,0,0,119,292,0.11643835616438356,0.06952965235173823,0.0,0.0,0.11643835616438356,0.0,0.0,1.0,0.0,0.0,0.2085889570552147,0,0,292,8185,0.7902260232131949,0.6440770251411624,0.9134615384615384,0.6834613646633529,0.9915966386554622,0.7901615969581749,0.9114191021391985,0.17933130699088146,0.8473496432212029,0.7811491284699806,0.30373230373230375,3640,4426,119,0.06694768162658071,0.36982968369829683,1.0626622717602732
simple_pc1_gm_gate_t254,score_all_max,0.02,pc1__ge,-5.359154835604749,155,8477,0.7670166332428925,0.6259085478870107,0.9134615384615384,0.6834613646633529,0.36982968369829683,0.7555101113383322,0.8931207558311189,0.22060957910014514,0.827011565725656,0.7743504415717394,0.27636363636363637,3640,4426,411,8066,0.7872551450533102,0.5427586188595933,0.9134615384615384,0.6834613646633529,0.0,0.7895986701496082,0.9116937914406269,0.0,0.8470258565787798,0.78125,0.0,3640,4426,0,119,0.9915966386554622,0.33192686357243323,0.0,0.0,0.9915966386554622,0.0,0.0,1.0,0.0,0.0,0.9957805907172996,0,0,119,292,0.11643835616438356,0.06952965235173823,0.0,0.0,0.11643835616438356,0.0,0.0,1.0,0.0,0.0,0.2085889570552147,0,0,292,8185,0.7902260232131949,0.6443615152574248,0.9134615384615384,0.6834613646633529,0.9915966386554622,0.7895986701496082,0.9114191021391985,0.1801526717557252,0.8470258565787798,0.7811491284699806,0.3049095607235142,3640,4426,119,0.0665757500619886,0.36982968369829683,1.0626622717602732
simple_pc1_gm_gate_t254,score_all_max,0.02,pc3__ge,-2.4479177605053817,158,8477,0.7670166332428925,0.6257608792820484,0.9134615384615384,0.6834613646633529,0.36982968369829683,0.7560254661209641,0.8931207558311189,0.21965317919075145,0.8273202289126649,0.7743504415717394,0.2756119673617407,3640,4426,411,8066,0.7872551450533102,0.542866547740401,0.9134615384615384,0.6834613646633529,0.0,0.7901615969581749,0.9116937914406269,0.0,0.8473496432212029,0.78125,0.0,3640,4426,0,119,0.9915966386554622,0.33192686357243323,0.0,0.0,0.9915966386554622,0.0,0.0,1.0,0.0,0.0,0.9957805907172996,0,0,119,292,0.11643835616438356,0.06952965235173823,0.0,0.0,0.11643835616438356,0.0,0.0,1.0,0.0,0.0,0.2085889570552147,0,0,292,8185,0.7902260232131949,0.6440770251411624,0.9134615384615384,0.6834613646633529,0.9915966386554622,0.7901615969581749,0.9114191021391985,0.17933130699088146,0.8473496432212029,0.7811491284699806,0.30373230373230375,3640,4426,119,0.06694768162658071,0.36982968369829683,1.0626622717602732
simple_pc1_gm_gate_t254,score_core,0.02,pc1__ge,-5.359154835604749,155,8477,0.7670166332428925,0.6259085478870107,0.9134615384615384,0.6834613646633529,0.36982968369829683,0.7555101113383322,0.8931207558311189,0.22060957910014514,0.827011565725656,0.7743504415717394,0.27636363636363637,3640,4426,411,8066,0.7872551450533102,0.5427586188595933,0.9134615384615384,0.6834613646633529,0.0,0.7895986701496082,0.9116937914406269,0.0,0.8470258565787798,0.78125,0.0,3640,4426,0,119,0.9915966386554622,0.33192686357243323,0.0,0.0,0.9915966386554622,0.0,0.0,1.0,0.0,0.0,0.9957805907172996,0,0,119,292,0.11643835616438356,0.06952965235173823,0.0,0.0,0.11643835616438356,0.0,0.0,1.0,0.0,0.0,0.2085889570552147,0,0,292,8185,0.7902260232131949,0.6443615152574248,0.9134615384615384,0.6834613646633529,0.9915966386554622,0.7895986701496082,0.9114191021391985,0.1801526717557252,0.8470258565787798,0.7811491284699806,0.3049095607235142,3640,4426,119,0.0665757500619886,0.36982968369829683,1.0626622717602732
simple_pc1_gm_gate_t254,score_core,0.02,pc3__ge,-2.4479177605053817,158,8477,0.7670166332428925,0.6257608792820484,0.9134615384615384,0.6834613646633529,0.36982968369829683,0.7560254661209641,0.8931207558311189,0.21965317919075145,0.8273202289126649,0.7743504415717394,0.2756119673617407,3640,4426,411,8066,0.7872551450533102,0.542866547740401,0.9134615384615384,0.6834613646633529,0.0,0.7901615969581749,0.9116937914406269,0.0,0.8473496432212029,0.78125,0.0,3640,4426,0,119,0.9915966386554622,0.33192686357243323,0.0,0.0,0.9915966386554622,0.0,0.0,1.0,0.0,0.0,0.9957805907172996,0,0,119,292,0.11643835616438356,0.06952965235173823,0.0,0.0,0.11643835616438356,0.0,0.0,1.0,0.0,0.0,0.2085889570552147,0,0,292,8185,0.7902260232131949,0.6440770251411624,0.9134615384615384,0.6834613646633529,0.9915966386554622,0.7901615969581749,0.9114191021391985,0.17933130699088146,0.8473496432212029,0.7811491284699806,0.30373230373230375,3640,4426,119,0.06694768162658071,0.36982968369829683,1.0626622717602732
simple_pc1_gm_gate_t254,score_outlier,0.02,pc1__ge,-5.359154835604749,155,8477,0.7670166332428925,0.6259085478870107,0.9134615384615384,0.6834613646633529,0.36982968369829683,0.7555101113383322,0.8931207558311189,0.22060957910014514,0.827011565725656,0.7743504415717394,0.27636363636363637,3640,4426,411,8066,0.7872551450533102,0.5427586188595933,0.9134615384615384,0.6834613646633529,0.0,0.7895986701496082,0.9116937914406269,0.0,0.8470258565787798,0.78125,0.0,3640,4426,0,119,0.9915966386554622,0.33192686357243323,0.0,0.0,0.9915966386554622,0.0,0.0,1.0,0.0,0.0,0.9957805907172996,0,0,119,292,0.11643835616438356,0.06952965235173823,0.0,0.0,0.11643835616438356,0.0,0.0,1.0,0.0,0.0,0.2085889570552147,0,0,292,8185,0.7902260232131949,0.6443615152574248,0.9134615384615384,0.6834613646633529,0.9915966386554622,0.7895986701496082,0.9114191021391985,0.1801526717557252,0.8470258565787798,0.7811491284699806,0.3049095607235142,3640,4426,119,0.0665757500619886,0.36982968369829683,1.0626622717602732
simple_pc1_gm_gate_t254,score_outlier,0.02,pc3__ge,-2.4479177605053817,158,8477,0.7670166332428925,0.6257608792820484,0.9134615384615384,0.6834613646633529,0.36982968369829683,0.7560254661209641,0.8931207558311189,0.21965317919075145,0.8273202289126649,0.7743504415717394,0.2756119673617407,3640,4426,411,8066,0.7872551450533102,0.542866547740401,0.9134615384615384,0.6834613646633529,0.0,0.7901615969581749,0.9116937914406269,0.0,0.8473496432212029,0.78125,0.0,3640,4426,0,119,0.9915966386554622,0.33192686357243323,0.0,0.0,0.9915966386554622,0.0,0.0,1.0,0.0,0.0,0.9957805907172996,0,0,119,292,0.11643835616438356,0.06952965235173823,0.0,0.0,0.11643835616438356,0.0,0.0,1.0,0.0,0.0,0.2085889570552147,0,0,292,8185,0.7902260232131949,0.6440770251411624,0.9134615384615384,0.6834613646633529,0.9915966386554622,0.7901615969581749,0.9114191021391985,0.17933130699088146,0.8473496432212029,0.7811491284699806,0.30373230373230375,3640,4426,119,0.06694768162658071,0.36982968369829683,1.0626622717602732
simple_pc1_gm_gate_t254,score_dual,0.01,pc3__ge,-1.610530736647411,175,8477,0.7644213754866108,0.623551162664408,0.9131868131868132,0.6784907365567103,0.3722627737226277,0.7545970488081726,0.8929527207850134,0.2157968970380818,0.8263517712865134,0.7710874309924252,0.2732142857142857,3640,4426,411,8066,0.7844036697247706,0.5414061413435841,0.9131868131868132,0.6784907365567103,0.0,0.7886120996441282,0.9113808801213961,0.0,0.8463399108847868,0.7778785131459656,0.0,3640,4426,0,119,1.0,0.3333333333333333,0.0,0.0,1.0,0.0,0.0,1.0,0.0,0.0,1.0,0,0,119,292,0.11643835616438356,0.06952965235173823,0.0,0.0,0.11643835616438356,0.0,0.0,1.0,0.0,0.0,0.2085889570552147,0,0,292,8185,0.7875381795968235,0.6413221782873288,0.9131868131868132,0.6784907365567103,1.0,0.7886120996441282,0.9113808801213961,0.17629629629629628,0.8463399108847868,0.7778785131459656,0.29974811083123426,3640,4426,119,0.06893131663773866,0.3722627737226277,1.062179099714188
simple_pc1_gm_gate_t254,score_all_max,0.01,pc3__ge,-1.610530736647411,175,8477,0.7644213754866108,0.623551162664408,0.9131868131868132,0.6784907365567103,0.3722627737226277,0.7545970488081726,0.8929527207850134,0.2157968970380818,0.8263517712865134,0.7710874309924252,0.2732142857142857,3640,4426,411,8066,0.7844036697247706,0.5414061413435841,0.9131868131868132,0.6784907365567103,0.0,0.7886120996441282,0.9113808801213961,0.0,0.8463399108847868,0.7778785131459656,0.0,3640,4426,0,119,1.0,0.3333333333333333,0.0,0.0,1.0,0.0,0.0,1.0,0.0,0.0,1.0,0,0,119,292,0.11643835616438356,0.06952965235173823,0.0,0.0,0.11643835616438356,0.0,0.0,1.0,0.0,0.0,0.2085889570552147,0,0,292,8185,0.7875381795968235,0.6413221782873288,0.9131868131868132,0.6784907365567103,1.0,0.7886120996441282,0.9113808801213961,0.17629629629629628,0.8463399108847868,0.7778785131459656,0.29974811083123426,3640,4426,119,0.06893131663773866,0.3722627737226277,1.062179099714188
simple_pc1_gm_gate_t254,score_core,0.01,pc3__ge,-1.610530736647411,175,8477,0.7644213754866108,0.623551162664408,0.9131868131868132,0.6784907365567103,0.3722627737226277,0.7545970488081726,0.8929527207850134,0.2157968970380818,0.8263517712865134,0.7710874309924252,0.2732142857142857,3640,4426,411,8066,0.7844036697247706,0.5414061413435841,0.9131868131868132,0.6784907365567103,0.0,0.7886120996441282,0.9113808801213961,0.0,0.8463399108847868,0.7778785131459656,0.0,3640,4426,0,119,1.0,0.3333333333333333,0.0,0.0,1.0,0.0,0.0,1.0,0.0,0.0,1.0,0,0,119,292,0.11643835616438356,0.06952965235173823,0.0,0.0,0.11643835616438356,0.0,0.0,1.0,0.0,0.0,0.2085889570552147,0,0,292,8185,0.7875381795968235,0.6413221782873288,0.9131868131868132,0.6784907365567103,1.0,0.7886120996441282,0.9113808801213961,0.17629629629629628,0.8463399108847868,0.7778785131459656,0.29974811083123426,3640,4426,119,0.06893131663773866,0.3722627737226277,1.062179099714188
simple_pc1_gm_gate_t254,score_outlier,0.01,pc3__ge,-1.610530736647411,175,8477,0.7644213754866108,0.623551162664408,0.9131868131868132,0.6784907365567103,0.3722627737226277,0.7545970488081726,0.8929527207850134,0.2157968970380818,0.8263517712865134,0.7710874309924252,0.2732142857142857,3640,4426,411,8066,0.7844036697247706,0.5414061413435841,0.9131868131868132,0.6784907365567103,0.0,0.7886120996441282,0.9113808801213961,0.0,0.8463399108847868,0.7778785131459656,0.0,3640,4426,0,119,1.0,0.3333333333333333,0.0,0.0,1.0,0.0,0.0,1.0,0.0,0.0,1.0,0,0,119,292,0.11643835616438356,0.06952965235173823,0.0,0.0,0.11643835616438356,0.0,0.0,1.0,0.0,0.0,0.2085889570552147,0,0,292,8185,0.7875381795968235,0.6413221782873288,0.9131868131868132,0.6784907365567103,1.0,0.7886120996441282,0.9113808801213961,0.17629629629629628,0.8463399108847868,0.7778785131459656,0.29974811083123426,3640,4426,119,0.06893131663773866,0.3722627737226277,1.062179099714188
simple_pc1_gm_gate_t254,score_dual,0.05,pc3__le,2.1506591515994145,117,8477,0.7706735873540167,0.6295061745123394,0.9129120879120879,0.6913691821057388,0.36496350364963503,0.7550556691660986,0.8934306569343066,0.2304147465437788,0.826514115159806,0.7795185326709974,0.2824858757062147,3640,4426,411,8066,0.7913463922638234,0.5443806905447134,0.9129120879120879,0.6913691821057388,0.0,0.7889363722697056,0.9126155681479272,0.0,0.8464085583290881,0.786733513305052,0.0,3640,4426,0,119,0.9747899159663865,0.32907801418439714,0.0,0.0,0.9747899159663865,0.0,0.0,1.0,0.0,0.0,0.9872340425531915,0,0,119,292,0.11643835616438356,0.06952965235173823,0.0,0.0,0.11643835616438356,0.0,0.0,1.0,0.0,0.0,0.2085889570552147,0,0,292,8185,0.7940134392180819,0.6493520577421142,0.9129120879120879,0.6913691821057388,0.9747899159663865,0.7889363722697056,0.9117997616209773,0.1880064829821718,0.8464085583290881,0.7864302235929067,0.31521739130434784,3640,4426,119,0.06211257128688322,0.36496350364963503,1.0620950544510046
simple_pc1_gm_gate_t254,score_all_max,0.05,pc3__le,2.1506591515994145,117,8477,0.7706735873540167,0.6295061745123394,0.9129120879120879,0.6913691821057388,0.36496350364963503,0.7550556691660986,0.8934306569343066,0.2304147465437788,0.826514115159806,0.7795185326709974,0.2824858757062147,3640,4426,411,8066,0.7913463922638234,0.5443806905447134,0.9129120879120879,0.6913691821057388,0.0,0.7889363722697056,0.9126155681479272,0.0,0.8464085583290881,0.786733513305052,0.0,3640,4426,0,119,0.9747899159663865,0.32907801418439714,0.0,0.0,0.9747899159663865,0.0,0.0,1.0,0.0,0.0,0.9872340425531915,0,0,119,292,0.11643835616438356,0.06952965235173823,0.0,0.0,0.11643835616438356,0.0,0.0,1.0,0.0,0.0,0.2085889570552147,0,0,292,8185,0.7940134392180819,0.6493520577421142,0.9129120879120879,0.6913691821057388,0.9747899159663865,0.7889363722697056,0.9117997616209773,0.1880064829821718,0.8464085583290881,0.7864302235929067,0.31521739130434784,3640,4426,119,0.06211257128688322,0.36496350364963503,1.0620950544510046
simple_pc1_gm_gate_t254,score_core,0.05,pc3__le,2.1506591515994145,117,8477,0.7706735873540167,0.6295061745123394,0.9129120879120879,0.6913691821057388,0.36496350364963503,0.7550556691660986,0.8934306569343066,0.2304147465437788,0.826514115159806,0.7795185326709974,0.2824858757062147,3640,4426,411,8066,0.7913463922638234,0.5443806905447134,0.9129120879120879,0.6913691821057388,0.0,0.7889363722697056,0.9126155681479272,0.0,0.8464085583290881,0.786733513305052,0.0,3640,4426,0,119,0.9747899159663865,0.32907801418439714,0.0,0.0,0.9747899159663865,0.0,0.0,1.0,0.0,0.0,0.9872340425531915,0,0,119,292,0.11643835616438356,0.06952965235173823,0.0,0.0,0.11643835616438356,0.0,0.0,1.0,0.0,0.0,0.2085889570552147,0,0,292,8185,0.7940134392180819,0.6493520577421142,0.9129120879120879,0.6913691821057388,0.9747899159663865,0.7889363722697056,0.9117997616209773,0.1880064829821718,0.8464085583290881,0.7864302235929067,0.31521739130434784,3640,4426,119,0.06211257128688322,0.36496350364963503,1.0620950544510046
simple_pc1_gm_gate_t254,score_outlier,0.05,pc3__le,2.1506591515994145,117,8477,0.7706735873540167,0.6295061745123394,0.9129120879120879,0.6913691821057388,0.36496350364963503,0.7550556691660986,0.8934306569343066,0.2304147465437788,0.826514115159806,0.7795185326709974,0.2824858757062147,3640,4426,411,8066,0.7913463922638234,0.5443806905447134,0.9129120879120879,0.6913691821057388,0.0,0.7889363722697056,0.9126155681479272,0.0,0.8464085583290881,0.786733513305052,0.0,3640,4426,0,119,0.9747899159663865,0.32907801418439714,0.0,0.0,0.9747899159663865,0.0,0.0,1.0,0.0,0.0,0.9872340425531915,0,0,119,292,0.11643835616438356,0.06952965235173823,0.0,0.0,0.11643835616438356,0.0,0.0,1.0,0.0,0.0,0.2085889570552147,0,0,292,8185,0.7940134392180819,0.6493520577421142,0.9129120879120879,0.6913691821057388,0.9747899159663865,0.7889363722697056,0.9117997616209773,0.1880064829821718,0.8464085583290881,0.7864302235929067,0.31521739130434784,3640,4426,119,0.06211257128688322,0.36496350364963503,1.0620950544510046
simple_pc1_gm_gate_t254,score_dual,0.02,qrs_visibility__le,0.1065758014715877,194,8477,0.7670166332428925,0.6246114404023347,0.9129120879120879,0.683687302304564,0.3722627737226277,0.7628558310376492,0.8918361332154435,0.21016483516483517,0.8311655827913957,0.7740120219976979,0.26865671641791045,3640,4426,411,8066,0.7871311678651128,0.5440553117611207,0.9129120879120879,0.683687302304564,0.0,0.7968824940047962,0.9111713339355616,0.0,0.8509603072983355,0.7812056279850265,0.0,3640,4426,0,119,0.9663865546218487,0.3276353276353276,0.0,0.0,0.9663865546218487,0.0,0.0,1.0,0.0,0.0,0.9829059829059829,0,0,119,292,0.13013698630136986,0.07676767676767678,0.0,0.0,0.13013698630136986,0.0,0.0,1.0,0.0,0.0,0.23030303030303031,0,0,292,8185,0.7897373243738546,0.6386881304400635,0.9129120879120879,0.683687302304564,0.9663865546218487,0.7968824940047962,0.9100751879699248,0.16666666666666666,0.8509603072983355,0.780802477099729,0.2843016069221261,3640,4426,119,0.07128688321348872,0.3722627737226277,1.061787135184295
simple_pc1_gm_gate_t254,score_all_max,0.02,qrs_visibility__le,0.1065758014715877,194,8477,0.7670166332428925,0.6246114404023347,0.9129120879120879,0.683687302304564,0.3722627737226277,0.7628558310376492,0.8918361332154435,0.21016483516483517,0.8311655827913957,0.7740120219976979,0.26865671641791045,3640,4426,411,8066,0.7871311678651128,0.5440553117611207,0.9129120879120879,0.683687302304564,0.0,0.7968824940047962,0.9111713339355616,0.0,0.8509603072983355,0.7812056279850265,0.0,3640,4426,0,119,0.9663865546218487,0.3276353276353276,0.0,0.0,0.9663865546218487,0.0,0.0,1.0,0.0,0.0,0.9829059829059829,0,0,119,292,0.13013698630136986,0.07676767676767678,0.0,0.0,0.13013698630136986,0.0,0.0,1.0,0.0,0.0,0.23030303030303031,0,0,292,8185,0.7897373243738546,0.6386881304400635,0.9129120879120879,0.683687302304564,0.9663865546218487,0.7968824940047962,0.9100751879699248,0.16666666666666666,0.8509603072983355,0.780802477099729,0.2843016069221261,3640,4426,119,0.07128688321348872,0.3722627737226277,1.061787135184295
simple_pc1_gm_gate_t254,score_core,0.02,qrs_visibility__le,0.1065758014715877,194,8477,0.7670166332428925,0.6246114404023347,0.9129120879120879,0.683687302304564,0.3722627737226277,0.7628558310376492,0.8918361332154435,0.21016483516483517,0.8311655827913957,0.7740120219976979,0.26865671641791045,3640,4426,411,8066,0.7871311678651128,0.5440553117611207,0.9129120879120879,0.683687302304564,0.0,0.7968824940047962,0.9111713339355616,0.0,0.8509603072983355,0.7812056279850265,0.0,3640,4426,0,119,0.9663865546218487,0.3276353276353276,0.0,0.0,0.9663865546218487,0.0,0.0,1.0,0.0,0.0,0.9829059829059829,0,0,119,292,0.13013698630136986,0.07676767676767678,0.0,0.0,0.13013698630136986,0.0,0.0,1.0,0.0,0.0,0.23030303030303031,0,0,292,8185,0.7897373243738546,0.6386881304400635,0.9129120879120879,0.683687302304564,0.9663865546218487,0.7968824940047962,0.9100751879699248,0.16666666666666666,0.8509603072983355,0.780802477099729,0.2843016069221261,3640,4426,119,0.07128688321348872,0.3722627737226277,1.061787135184295
simple_pc1_gm_gate_t254,score_outlier,0.02,qrs_visibility__le,0.1065758014715877,194,8477,0.7670166332428925,0.6246114404023347,0.9129120879120879,0.683687302304564,0.3722627737226277,0.7628558310376492,0.8918361332154435,0.21016483516483517,0.8311655827913957,0.7740120219976979,0.26865671641791045,3640,4426,411,8066,0.7871311678651128,0.5440553117611207,0.9129120879120879,0.683687302304564,0.0,0.7968824940047962,0.9111713339355616,0.0,0.8509603072983355,0.7812056279850265,0.0,3640,4426,0,119,0.9663865546218487,0.3276353276353276,0.0,0.0,0.9663865546218487,0.0,0.0,1.0,0.0,0.0,0.9829059829059829,0,0,119,292,0.13013698630136986,0.07676767676767678,0.0,0.0,0.13013698630136986,0.0,0.0,1.0,0.0,0.0,0.23030303030303031,0,0,292,8185,0.7897373243738546,0.6386881304400635,0.9129120879120879,0.683687302304564,0.9663865546218487,0.7968824940047962,0.9100751879699248,0.16666666666666666,0.8509603072983355,0.780802477099729,0.2843016069221261,3640,4426,119,0.07128688321348872,0.3722627737226277,1.061787135184295
simple_pc1_gm_gate_t254,score_dual,0.02,pc2__ge,-1.0634046292314407,197,8477,0.7668986669812433,0.6243899233897969,0.9129120879120879,0.6834613646633529,0.3722627737226277,0.7628558310376492,0.8923303834808259,0.20930232558139536,0.8311655827913957,0.7740532241555783,0.2679509632224168,3640,4426,411,8066,0.7870071906769155,0.5440701024327784,0.9129120879120879,0.6834613646633529,0.0,0.7968824940047962,0.9116937914406269,0.0,0.8509603072983355,0.78125,0.0,3640,4426,0,119,0.9663865546218487,0.3276353276353276,0.0,0.0,0.9663865546218487,0.0,0.0,1.0,0.0,0.0,0.9829059829059829,0,0,119,292,0.13013698630136986,0.07676767676767678,0.0,0.0,0.13013698630136986,0.0,0.0,1.0,0.0,0.0,0.23030303030303031,0,0,292,8185,0.7896151496640196,0.6383527363112814,0.9129120879120879,0.6834613646633529,0.9663865546218487,0.7968824940047962,0.9105960264900662,0.16594516594516595,0.8509603072983355,0.780846670108415,0.2832512315270936,3640,4426,119,0.07165881477808084,0.3722627737226277,1.0616691689226456
simple_pc1_gm_gate_t254,score_all_max,0.02,pc2__ge,-1.0634046292314407,197,8477,0.7668986669812433,0.6243899233897969,0.9129120879120879,0.6834613646633529,0.3722627737226277,0.7628558310376492,0.8923303834808259,0.20930232558139536,0.8311655827913957,0.7740532241555783,0.2679509632224168,3640,4426,411,8066,0.7870071906769155,0.5440701024327784,0.9129120879120879,0.6834613646633529,0.0,0.7968824940047962,0.9116937914406269,0.0,0.8509603072983355,0.78125,0.0,3640,4426,0,119,0.9663865546218487,0.3276353276353276,0.0,0.0,0.9663865546218487,0.0,0.0,1.0,0.0,0.0,0.9829059829059829,0,0,119,292,0.13013698630136986,0.07676767676767678,0.0,0.0,0.13013698630136986,0.0,0.0,1.0,0.0,0.0,0.23030303030303031,0,0,292,8185,0.7896151496640196,0.6383527363112814,0.9129120879120879,0.6834613646633529,0.9663865546218487,0.7968824940047962,0.9105960264900662,0.16594516594516595,0.8509603072983355,0.780846670108415,0.2832512315270936,3640,4426,119,0.07165881477808084,0.3722627737226277,1.0616691689226456
simple_pc1_gm_gate_t254,score_core,0.02,pc2__ge,-1.0634046292314407,197,8477,0.7668986669812433,0.6243899233897969,0.9129120879120879,0.6834613646633529,0.3722627737226277,0.7628558310376492,0.8923303834808259,0.20930232558139536,0.8311655827913957,0.7740532241555783,0.2679509632224168,3640,4426,411,8066,0.7870071906769155,0.5440701024327784,0.9129120879120879,0.6834613646633529,0.0,0.7968824940047962,0.9116937914406269,0.0,0.8509603072983355,0.78125,0.0,3640,4426,0,119,0.9663865546218487,0.3276353276353276,0.0,0.0,0.9663865546218487,0.0,0.0,1.0,0.0,0.0,0.9829059829059829,0,0,119,292,0.13013698630136986,0.07676767676767678,0.0,0.0,0.13013698630136986,0.0,0.0,1.0,0.0,0.0,0.23030303030303031,0,0,292,8185,0.7896151496640196,0.6383527363112814,0.9129120879120879,0.6834613646633529,0.9663865546218487,0.7968824940047962,0.9105960264900662,0.16594516594516595,0.8509603072983355,0.780846670108415,0.2832512315270936,3640,4426,119,0.07165881477808084,0.3722627737226277,1.0616691689226456
simple_pc1_gm_gate_t254,score_outlier,0.02,pc2__ge,-1.0634046292314407,197,8477,0.7668986669812433,0.6243899233897969,0.9129120879120879,0.6834613646633529,0.3722627737226277,0.7628558310376492,0.8923303834808259,0.20930232558139536,0.8311655827913957,0.7740532241555783,0.2679509632224168,3640,4426,411,8066,0.7870071906769155,0.5440701024327784,0.9129120879120879,0.6834613646633529,0.0,0.7968824940047962,0.9116937914406269,0.0,0.8509603072983355,0.78125,0.0,3640,4426,0,119,0.9663865546218487,0.3276353276353276,0.0,0.0,0.9663865546218487,0.0,0.0,1.0,0.0,0.0,0.9829059829059829,0,0,119,292,0.13013698630136986,0.07676767676767678,0.0,0.0,0.13013698630136986,0.0,0.0,1.0,0.0,0.0,0.23030303030303031,0,0,292,8185,0.7896151496640196,0.6383527363112814,0.9129120879120879,0.6834613646633529,0.9663865546218487,0.7968824940047962,0.9105960264900662,0.16594516594516595,0.8509603072983355,0.780846670108415,0.2832512315270936,3640,4426,119,0.07165881477808084,0.3722627737226277,1.0616691689226456
simple_pc1_gm_gate_t254,score_dual,0.03,pc1__ge,-5.359154835604749,128,8477,0.7684322283826825,0.6272720213257493,0.9134615384615384,0.6866244916403073,0.36496350364963503,0.7536264732547597,0.8930355568615927,0.22658610271903323,0.8258817685047193,0.7763443607101801,0.27958993476234856,3640,4426,411,8066,0.7889908256880734,0.543096698534379,0.9134615384615384,0.6866244916403073,0.0,0.7875414495499763,0.9120648259303722,0.0,0.8458407529890614,0.7834493426140758,0.0,3640,4426,0,119,0.9831932773109243,0.3305084745762712,0.0,0.0,0.9831932773109243,0.0,0.0,1.0,0.0,0.0,0.9915254237288136,0,0,119,292,0.11301369863013698,0.06769230769230769,0.0,0.0,0.11301369863013698,0.0,0.0,1.0,0.0,0.0,0.20307692307692307,0,0,292,8185,0.7918142944410507,0.6473074667561347,0.9134615384615384,0.6866244916403073,0.9831932773109243,0.7875414495499763,0.9115176964607079,0.18600953895071543,0.8458407529890614,0.7832474226804124,0.31283422459893045,3640,4426,119,0.0634763203570543,0.36496350364963503,1.060600501051214
simple_pc1_gm_gate_t254,score_all_max,0.03,pc1__ge,-5.359154835604749,128,8477,0.7684322283826825,0.6272720213257493,0.9134615384615384,0.6866244916403073,0.36496350364963503,0.7536264732547597,0.8930355568615927,0.22658610271903323,0.8258817685047193,0.7763443607101801,0.27958993476234856,3640,4426,411,8066,0.7889908256880734,0.543096698534379,0.9134615384615384,0.6866244916403073,0.0,0.7875414495499763,0.9120648259303722,0.0,0.8458407529890614,0.7834493426140758,0.0,3640,4426,0,119,0.9831932773109243,0.3305084745762712,0.0,0.0,0.9831932773109243,0.0,0.0,1.0,0.0,0.0,0.9915254237288136,0,0,119,292,0.11301369863013698,0.06769230769230769,0.0,0.0,0.11301369863013698,0.0,0.0,1.0,0.0,0.0,0.20307692307692307,0,0,292,8185,0.7918142944410507,0.6473074667561347,0.9134615384615384,0.6866244916403073,0.9831932773109243,0.7875414495499763,0.9115176964607079,0.18600953895071543,0.8458407529890614,0.7832474226804124,0.31283422459893045,3640,4426,119,0.0634763203570543,0.36496350364963503,1.060600501051214
simple_pc1_gm_gate_t254,score_core,0.03,pc1__ge,-5.359154835604749,128,8477,0.7684322283826825,0.6272720213257493,0.9134615384615384,0.6866244916403073,0.36496350364963503,0.7536264732547597,0.8930355568615927,0.22658610271903323,0.8258817685047193,0.7763443607101801,0.27958993476234856,3640,4426,411,8066,0.7889908256880734,0.543096698534379,0.9134615384615384,0.6866244916403073,0.0,0.7875414495499763,0.9120648259303722,0.0,0.8458407529890614,0.7834493426140758,0.0,3640,4426,0,119,0.9831932773109243,0.3305084745762712,0.0,0.0,0.9831932773109243,0.0,0.0,1.0,0.0,0.0,0.9915254237288136,0,0,119,292,0.11301369863013698,0.06769230769230769,0.0,0.0,0.11301369863013698,0.0,0.0,1.0,0.0,0.0,0.20307692307692307,0,0,292,8185,0.7918142944410507,0.6473074667561347,0.9134615384615384,0.6866244916403073,0.9831932773109243,0.7875414495499763,0.9115176964607079,0.18600953895071543,0.8458407529890614,0.7832474226804124,0.31283422459893045,3640,4426,119,0.0634763203570543,0.36496350364963503,1.060600501051214
simple_pc1_gm_gate_t254,score_outlier,0.03,pc1__ge,-5.359154835604749,128,8477,0.7684322283826825,0.6272720213257493,0.9134615384615384,0.6866244916403073,0.36496350364963503,0.7536264732547597,0.8930355568615927,0.22658610271903323,0.8258817685047193,0.7763443607101801,0.27958993476234856,3640,4426,411,8066,0.7889908256880734,0.543096698534379,0.9134615384615384,0.6866244916403073,0.0,0.7875414495499763,0.9120648259303722,0.0,0.8458407529890614,0.7834493426140758,0.0,3640,4426,0,119,0.9831932773109243,0.3305084745762712,0.0,0.0,0.9831932773109243,0.0,0.0,1.0,0.0,0.0,0.9915254237288136,0,0,119,292,0.11301369863013698,0.06769230769230769,0.0,0.0,0.11301369863013698,0.0,0.0,1.0,0.0,0.0,0.20307692307692307,0,0,292,8185,0.7918142944410507,0.6473074667561347,0.9134615384615384,0.6866244916403073,0.9831932773109243,0.7875414495499763,0.9115176964607079,0.18600953895071543,0.8458407529890614,0.7832474226804124,0.31283422459893045,3640,4426,119,0.0634763203570543,0.36496350364963503,1.060600501051214
simple_pc1_gm_gate_t254,score_dual,0.03,pc1__ge,-6.099036591134506,150,8477,0.7683142621210334,0.6260707852429533,0.9131868131868132,0.6866244916403073,0.36496350364963503,0.7571753986332574,0.8930355568615927,0.21929824561403508,0.8278953922789539,0.7763443607101801,0.273972602739726,3640,4426,411,8066,0.788866848499876,0.5438028420958484,0.9131868131868132,0.6866244916403073,0.0,0.7914285714285715,0.9120648259303722,0.0,0.8479591836734693,0.7834493426140758,0.0,3640,4426,0,119,0.9831932773109243,0.3305084745762712,0.0,0.0,0.9831932773109243,0.0,0.0,1.0,0.0,0.0,0.9915254237288136,0,0,119,292,0.11301369863013698,0.06769230769230769,0.0,0.0,0.11301369863013698,0.0,0.0,1.0,0.0,0.0,0.20307692307692307,0,0,292,8185,0.7916921197312157,0.6450342367499952,0.9131868131868132,0.6866244916403073,0.9831932773109243,0.7914285714285715,0.9115176964607079,0.17972350230414746,0.8479591836734693,0.7832474226804124,0.3038961038961039,3640,4426,119,0.06620381849739648,0.36496350364963503,1.0604825347895648
simple_pc1_gm_gate_t254,score_all_max,0.03,pc1__ge,-6.099036591134506,150,8477,0.7683142621210334,0.6260707852429533,0.9131868131868132,0.6866244916403073,0.36496350364963503,0.7571753986332574,0.8930355568615927,0.21929824561403508,0.8278953922789539,0.7763443607101801,0.273972602739726,3640,4426,411,8066,0.788866848499876,0.5438028420958484,0.9131868131868132,0.6866244916403073,0.0,0.7914285714285715,0.9120648259303722,0.0,0.8479591836734693,0.7834493426140758,0.0,3640,4426,0,119,0.9831932773109243,0.3305084745762712,0.0,0.0,0.9831932773109243,0.0,0.0,1.0,0.0,0.0,0.9915254237288136,0,0,119,292,0.11301369863013698,0.06769230769230769,0.0,0.0,0.11301369863013698,0.0,0.0,1.0,0.0,0.0,0.20307692307692307,0,0,292,8185,0.7916921197312157,0.6450342367499952,0.9131868131868132,0.6866244916403073,0.9831932773109243,0.7914285714285715,0.9115176964607079,0.17972350230414746,0.8479591836734693,0.7832474226804124,0.3038961038961039,3640,4426,119,0.06620381849739648,0.36496350364963503,1.0604825347895648
simple_pc1_gm_gate_t254,score_core,0.03,pc1__ge,-6.099036591134506,150,8477,0.7683142621210334,0.6260707852429533,0.9131868131868132,0.6866244916403073,0.36496350364963503,0.7571753986332574,0.8930355568615927,0.21929824561403508,0.8278953922789539,0.7763443607101801,0.273972602739726,3640,4426,411,8066,0.788866848499876,0.5438028420958484,0.9131868131868132,0.6866244916403073,0.0,0.7914285714285715,0.9120648259303722,0.0,0.8479591836734693,0.7834493426140758,0.0,3640,4426,0,119,0.9831932773109243,0.3305084745762712,0.0,0.0,0.9831932773109243,0.0,0.0,1.0,0.0,0.0,0.9915254237288136,0,0,119,292,0.11301369863013698,0.06769230769230769,0.0,0.0,0.11301369863013698,0.0,0.0,1.0,0.0,0.0,0.20307692307692307,0,0,292,8185,0.7916921197312157,0.6450342367499952,0.9131868131868132,0.6866244916403073,0.9831932773109243,0.7914285714285715,0.9115176964607079,0.17972350230414746,0.8479591836734693,0.7832474226804124,0.3038961038961039,3640,4426,119,0.06620381849739648,0.36496350364963503,1.0604825347895648
simple_pc1_gm_gate_t254,score_outlier,0.03,pc1__ge,-6.099036591134506,150,8477,0.7683142621210334,0.6260707852429533,0.9131868131868132,0.6866244916403073,0.36496350364963503,0.7571753986332574,0.8930355568615927,0.21929824561403508,0.8278953922789539,0.7763443607101801,0.273972602739726,3640,4426,411,8066,0.788866848499876,0.5438028420958484,0.9131868131868132,0.6866244916403073,0.0,0.7914285714285715,0.9120648259303722,0.0,0.8479591836734693,0.7834493426140758,0.0,3640,4426,0,119,0.9831932773109243,0.3305084745762712,0.0,0.0,0.9831932773109243,0.0,0.0,1.0,0.0,0.0,0.9915254237288136,0,0,119,292,0.11301369863013698,0.06769230769230769,0.0,0.0,0.11301369863013698,0.0,0.0,1.0,0.0,0.0,0.20307692307692307,0,0,292,8185,0.7916921197312157,0.6450342367499952,0.9131868131868132,0.6866244916403073,0.9831932773109243,0.7914285714285715,0.9115176964607079,0.17972350230414746,0.8479591836734693,0.7832474226804124,0.3038961038961039,3640,4426,119,0.06620381849739648,0.36496350364963503,1.0604825347895648
simple_pc1_gm_gate_t254,score_dual,0.05,none,,131,8477,0.7690220596909284,0.6275542637586061,0.9129120879120879,0.6882060551287844,0.36496350364963503,0.7550556691660986,0.8929932571093521,0.22556390977443608,0.826514115159806,0.7773382671940794,0.2788104089219331,3640,4426,411,8066,0.7896107116290603,0.5436515327506061,0.9129120879120879,0.6882060551287844,0.0,0.7889363722697056,0.9122491764001198,0.0,0.8464085583290881,0.7845460399227302,0.0,3640,4426,0,119,0.9747899159663865,0.32907801418439714,0.0,0.0,0.9747899159663865,0.0,0.0,1.0,0.0,0.0,0.9872340425531915,0,0,119,292,0.11643835616438356,0.06952965235173823,0.0,0.0,0.11643835616438356,0.0,0.0,1.0,0.0,0.0,0.2085889570552147,0,0,292,8185,0.792302993280391,0.6466616466887096,0.9129120879120879,0.6882060551287844,0.9747899159663865,0.7889363722697056,0.9114302812687014,0.1838351822503962,0.8464085583290881,0.7842430484037075,0.30933333333333335,3640,4426,119,0.06384825192164642,0.36496350364963503,1.0604435267879162
simple_pc1_gm_gate_t254,score_dual,0.05,pc3__le,3.281193089810729,131,8477,0.7690220596909284,0.6275542637586061,0.9129120879120879,0.6882060551287844,0.36496350364963503,0.7550556691660986,0.8929932571093521,0.22556390977443608,0.826514115159806,0.7773382671940794,0.2788104089219331,3640,4426,411,8066,0.7896107116290603,0.5436515327506061,0.9129120879120879,0.6882060551287844,0.0,0.7889363722697056,0.9122491764001198,0.0,0.8464085583290881,0.7845460399227302,0.0,3640,4426,0,119,0.9747899159663865,0.32907801418439714,0.0,0.0,0.9747899159663865,0.0,0.0,1.0,0.0,0.0,0.9872340425531915,0,0,119,292,0.11643835616438356,0.06952965235173823,0.0,0.0,0.11643835616438356,0.0,0.0,1.0,0.0,0.0,0.2085889570552147,0,0,292,8185,0.792302993280391,0.6466616466887096,0.9129120879120879,0.6882060551287844,0.9747899159663865,0.7889363722697056,0.9114302812687014,0.1838351822503962,0.8464085583290881,0.7842430484037075,0.30933333333333335,3640,4426,119,0.06384825192164642,0.36496350364963503,1.0604435267879162
simple_pc1_gm_gate_t254,score_dual,0.05,qrs_visibility__le,0.2800807397384144,131,8477,0.7690220596909284,0.6275542637586061,0.9129120879120879,0.6882060551287844,0.36496350364963503,0.7550556691660986,0.8929932571093521,0.22556390977443608,0.826514115159806,0.7773382671940794,0.2788104089219331,3640,4426,411,8066,0.7896107116290603,0.5436515327506061,0.9129120879120879,0.6882060551287844,0.0,0.7889363722697056,0.9122491764001198,0.0,0.8464085583290881,0.7845460399227302,0.0,3640,4426,0,119,0.9747899159663865,0.32907801418439714,0.0,0.0,0.9747899159663865,0.0,0.0,1.0,0.0,0.0,0.9872340425531915,0,0,119,292,0.11643835616438356,0.06952965235173823,0.0,0.0,0.11643835616438356,0.0,0.0,1.0,0.0,0.0,0.2085889570552147,0,0,292,8185,0.792302993280391,0.6466616466887096,0.9129120879120879,0.6882060551287844,0.9747899159663865,0.7889363722697056,0.9114302812687014,0.1838351822503962,0.8464085583290881,0.7842430484037075,0.30933333333333335,3640,4426,119,0.06384825192164642,0.36496350364963503,1.0604435267879162
simple_pc1_gm_gate_t254,score_dual,0.05,qrs_visibility__le,0.3732307518330272,131,8477,0.7690220596909284,0.6275542637586061,0.9129120879120879,0.6882060551287844,0.36496350364963503,0.7550556691660986,0.8929932571093521,0.22556390977443608,0.826514115159806,0.7773382671940794,0.2788104089219331,3640,4426,411,8066,0.7896107116290603,0.5436515327506061,0.9129120879120879,0.6882060551287844,0.0,0.7889363722697056,0.9122491764001198,0.0,0.8464085583290881,0.7845460399227302,0.0,3640,4426,0,119,0.9747899159663865,0.32907801418439714,0.0,0.0,0.9747899159663865,0.0,0.0,1.0,0.0,0.0,0.9872340425531915,0,0,119,292,0.11643835616438356,0.06952965235173823,0.0,0.0,0.11643835616438356,0.0,0.0,1.0,0.0,0.0,0.2085889570552147,0,0,292,8185,0.792302993280391,0.6466616466887096,0.9129120879120879,0.6882060551287844,0.9747899159663865,0.7889363722697056,0.9114302812687014,0.1838351822503962,0.8464085583290881,0.7842430484037075,0.30933333333333335,3640,4426,119,0.06384825192164642,0.36496350364963503,1.0604435267879162
