base_mode,score_col,score_threshold,gate,gate_threshold,changed_to_bad,test_all_n,test_all_acc,test_all_macro_f1,test_all_good_recall,test_all_medium_recall,test_all_bad_recall,test_all_good_precision,test_all_medium_precision,test_all_bad_precision,test_all_good_f1,test_all_medium_f1,test_all_bad_f1,test_all_support_good,test_all_support_medium,test_all_support_bad,gm_only_n,gm_only_acc,gm_only_macro_f1,gm_only_good_recall,gm_only_medium_recall,gm_only_bad_recall,gm_only_good_precision,gm_only_medium_precision,gm_only_bad_precision,gm_only_good_f1,gm_only_medium_f1,gm_only_bad_f1,gm_only_support_good,gm_only_support_medium,gm_only_support_bad,bad_core_n,bad_core_acc,bad_core_macro_f1,bad_core_good_recall,bad_core_medium_recall,bad_core_bad_recall,bad_core_good_precision,bad_core_medium_precision,bad_core_bad_precision,bad_core_good_f1,bad_core_medium_f1,bad_core_bad_f1,bad_core_support_good,bad_core_support_medium,bad_core_support_bad,bad_outlier_n,bad_outlier_acc,bad_outlier_macro_f1,bad_outlier_good_recall,bad_outlier_medium_recall,bad_outlier_bad_recall,bad_outlier_good_precision,bad_outlier_medium_precision,bad_outlier_bad_precision,bad_outlier_good_f1,bad_outlier_medium_f1,bad_outlier_bad_f1,bad_outlier_support_good,bad_outlier_support_medium,bad_outlier_support_bad,drop_bad_outlier_n,drop_bad_outlier_acc,drop_bad_outlier_macro_f1,drop_bad_outlier_good_recall,drop_bad_outlier_medium_recall,drop_bad_outlier_bad_recall,drop_bad_outlier_good_precision,drop_bad_outlier_medium_precision,drop_bad_outlier_bad_precision,drop_bad_outlier_good_f1,drop_bad_outlier_medium_f1,drop_bad_outlier_bad_f1,drop_bad_outlier_support_good,drop_bad_outlier_support_medium,drop_bad_outlier_support_bad,gm_false_bad_rate,bad_caught_rate,balanced_score
simple_pc1_gm_gate_t254,score_dual,0.01,qrs_visibility__le,0.018109057926941858,84,8477,0.7732688451102985,0.6414481042497329,0.9175824175824175,0.6963398102123813,0.3236009732360097,0.7188979767541972,0.8935923456074224,0.3481675392670157,0.8061790972725078,0.7827301587301587,0.3354350567465322,3640,4426,411,8066,0.7961815026035209,0.5388950852024841,0.9175824175824175,0.6963398102123813,0.0,0.7522522522522522,0.9126443588984305,0.0,0.8267326732673267,0.7899525823401256,0.0,3640,4426,0,119,1.0,0.3333333333333333,0.0,0.0,1.0,0.0,0.0,1.0,0.0,0.0,1.0,0,0,119,292,0.04794520547945205,0.030501089324618733,0.0,0.0,0.04794520547945205,0.0,0.0,1.0,0.0,0.0,0.0915032679738562,0,0,292,8185,0.7991447770311545,0.7017972070368441,0.9175824175824175,0.6963398102123813,1.0,0.7522522522522522,0.9126443588984305,0.3233695652173913,0.8267326732673267,0.7899525823401256,0.4887063655030801,3640,4426,119,0.03087031986114555,0.3236009732360097,1.0437209665648195
simple_pc1_gm_gate_t254,score_all_max,0.01,qrs_visibility__le,0.018109057926941858,84,8477,0.7732688451102985,0.6414481042497329,0.9175824175824175,0.6963398102123813,0.3236009732360097,0.7188979767541972,0.8935923456074224,0.3481675392670157,0.8061790972725078,0.7827301587301587,0.3354350567465322,3640,4426,411,8066,0.7961815026035209,0.5388950852024841,0.9175824175824175,0.6963398102123813,0.0,0.7522522522522522,0.9126443588984305,0.0,0.8267326732673267,0.7899525823401256,0.0,3640,4426,0,119,1.0,0.3333333333333333,0.0,0.0,1.0,0.0,0.0,1.0,0.0,0.0,1.0,0,0,119,292,0.04794520547945205,0.030501089324618733,0.0,0.0,0.04794520547945205,0.0,0.0,1.0,0.0,0.0,0.0915032679738562,0,0,292,8185,0.7991447770311545,0.7017972070368441,0.9175824175824175,0.6963398102123813,1.0,0.7522522522522522,0.9126443588984305,0.3233695652173913,0.8267326732673267,0.7899525823401256,0.4887063655030801,3640,4426,119,0.03087031986114555,0.3236009732360097,1.0437209665648195
simple_pc1_gm_gate_t254,score_core,0.01,qrs_visibility__le,0.018109057926941858,84,8477,0.7732688451102985,0.6414481042497329,0.9175824175824175,0.6963398102123813,0.3236009732360097,0.7188979767541972,0.8935923456074224,0.3481675392670157,0.8061790972725078,0.7827301587301587,0.3354350567465322,3640,4426,411,8066,0.7961815026035209,0.5388950852024841,0.9175824175824175,0.6963398102123813,0.0,0.7522522522522522,0.9126443588984305,0.0,0.8267326732673267,0.7899525823401256,0.0,3640,4426,0,119,1.0,0.3333333333333333,0.0,0.0,1.0,0.0,0.0,1.0,0.0,0.0,1.0,0,0,119,292,0.04794520547945205,0.030501089324618733,0.0,0.0,0.04794520547945205,0.0,0.0,1.0,0.0,0.0,0.0915032679738562,0,0,292,8185,0.7991447770311545,0.7017972070368441,0.9175824175824175,0.6963398102123813,1.0,0.7522522522522522,0.9126443588984305,0.3233695652173913,0.8267326732673267,0.7899525823401256,0.4887063655030801,3640,4426,119,0.03087031986114555,0.3236009732360097,1.0437209665648195
simple_pc1_gm_gate_t254,score_outlier,0.01,qrs_visibility__le,0.018109057926941858,84,8477,0.7732688451102985,0.6414481042497329,0.9175824175824175,0.6963398102123813,0.3236009732360097,0.7188979767541972,0.8935923456074224,0.3481675392670157,0.8061790972725078,0.7827301587301587,0.3354350567465322,3640,4426,411,8066,0.7961815026035209,0.5388950852024841,0.9175824175824175,0.6963398102123813,0.0,0.7522522522522522,0.9126443588984305,0.0,0.8267326732673267,0.7899525823401256,0.0,3640,4426,0,119,1.0,0.3333333333333333,0.0,0.0,1.0,0.0,0.0,1.0,0.0,0.0,1.0,0,0,119,292,0.04794520547945205,0.030501089324618733,0.0,0.0,0.04794520547945205,0.0,0.0,1.0,0.0,0.0,0.0915032679738562,0,0,292,8185,0.7991447770311545,0.7017972070368441,0.9175824175824175,0.6963398102123813,1.0,0.7522522522522522,0.9126443588984305,0.3233695652173913,0.8267326732673267,0.7899525823401256,0.4887063655030801,3640,4426,119,0.03087031986114555,0.3236009732360097,1.0437209665648195
simple_pc1_gm_gate_t254,score_dual,0.01,pc1__le,-0.7734152380448813,111,8477,0.7727969800637018,0.6383117903891458,0.9173076923076923,0.6956619972887483,0.3236009732360097,0.7224145391605366,0.8934997098084736,0.3251833740831296,0.8082788671023965,0.7822662601626016,0.32439024390243903,3640,4426,411,8066,0.7956855938507315,0.5394781826360774,0.9173076923076923,0.6956619972887483,0.0,0.7561141304347826,0.9125666864256076,0.0,0.8289473684210527,0.7894871794871795,0.0,3640,4426,0,119,1.0,0.3333333333333333,0.0,0.0,1.0,0.0,0.0,1.0,0.0,0.0,1.0,0,0,119,292,0.04794520547945205,0.030501089324618733,0.0,0.0,0.04794520547945205,0.0,0.0,1.0,0.0,0.0,0.0915032679738562,0,0,292,8185,0.7986560781918143,0.6938231891211618,0.9173076923076923,0.6956619972887483,1.0,0.7561141304347826,0.9125666864256076,0.3012658227848101,0.8289473684210527,0.7894871794871795,0.46303501945525294,3640,4426,119,0.03421770394247459,0.3236009732360097,1.0432491015182228
simple_pc1_gm_gate_t254,score_dual,0.01,pc2__ge,10.616705266871826,111,8477,0.7727969800637018,0.6383117903891458,0.9173076923076923,0.6956619972887483,0.3236009732360097,0.7224145391605366,0.8934997098084736,0.3251833740831296,0.8082788671023965,0.7822662601626016,0.32439024390243903,3640,4426,411,8066,0.7956855938507315,0.5394781826360774,0.9173076923076923,0.6956619972887483,0.0,0.7561141304347826,0.9125666864256076,0.0,0.8289473684210527,0.7894871794871795,0.0,3640,4426,0,119,1.0,0.3333333333333333,0.0,0.0,1.0,0.0,0.0,1.0,0.0,0.0,1.0,0,0,119,292,0.04794520547945205,0.030501089324618733,0.0,0.0,0.04794520547945205,0.0,0.0,1.0,0.0,0.0,0.0915032679738562,0,0,292,8185,0.7986560781918143,0.6938231891211618,0.9173076923076923,0.6956619972887483,1.0,0.7561141304347826,0.9125666864256076,0.3012658227848101,0.8289473684210527,0.7894871794871795,0.46303501945525294,3640,4426,119,0.03421770394247459,0.3236009732360097,1.0432491015182228
simple_pc1_gm_gate_t254,score_dual,0.01,qrs_visibility__le,0.0524517835345784,110,8477,0.7727969800637018,0.6384112109981435,0.9173076923076923,0.6956619972887483,0.3236009732360097,0.7222582738481506,0.8934997098084736,0.32598039215686275,0.8081810480455041,0.7822662601626016,0.3247863247863248,3640,4426,411,8066,0.7956855938507315,0.5394438875151298,0.9173076923076923,0.6956619972887483,0.0,0.7559429477020603,0.9125666864256076,0.0,0.8288444830582102,0.7894871794871795,0.0,3640,4426,0,119,1.0,0.3333333333333333,0.0,0.0,1.0,0.0,0.0,1.0,0.0,0.0,1.0,0,0,119,292,0.04794520547945205,0.030501089324618733,0.0,0.0,0.04794520547945205,0.0,0.0,1.0,0.0,0.0,0.0915032679738562,0,0,292,8185,0.7986560781918143,0.6940897614592494,0.9173076923076923,0.6956619972887483,1.0,0.7559429477020603,0.9125666864256076,0.3020304568527919,0.8288444830582102,0.7894871794871795,0.46393762183235865,3640,4426,119,0.034093726754277215,0.3236009732360097,1.0432491015182228
simple_pc1_gm_gate_t254,score_all_max,0.01,pc1__le,-0.7734152380448813,111,8477,0.7727969800637018,0.6383117903891458,0.9173076923076923,0.6956619972887483,0.3236009732360097,0.7224145391605366,0.8934997098084736,0.3251833740831296,0.8082788671023965,0.7822662601626016,0.32439024390243903,3640,4426,411,8066,0.7956855938507315,0.5394781826360774,0.9173076923076923,0.6956619972887483,0.0,0.7561141304347826,0.9125666864256076,0.0,0.8289473684210527,0.7894871794871795,0.0,3640,4426,0,119,1.0,0.3333333333333333,0.0,0.0,1.0,0.0,0.0,1.0,0.0,0.0,1.0,0,0,119,292,0.04794520547945205,0.030501089324618733,0.0,0.0,0.04794520547945205,0.0,0.0,1.0,0.0,0.0,0.0915032679738562,0,0,292,8185,0.7986560781918143,0.6938231891211618,0.9173076923076923,0.6956619972887483,1.0,0.7561141304347826,0.9125666864256076,0.3012658227848101,0.8289473684210527,0.7894871794871795,0.46303501945525294,3640,4426,119,0.03421770394247459,0.3236009732360097,1.0432491015182228
simple_pc1_gm_gate_t254,score_all_max,0.01,pc2__ge,10.616705266871826,111,8477,0.7727969800637018,0.6383117903891458,0.9173076923076923,0.6956619972887483,0.3236009732360097,0.7224145391605366,0.8934997098084736,0.3251833740831296,0.8082788671023965,0.7822662601626016,0.32439024390243903,3640,4426,411,8066,0.7956855938507315,0.5394781826360774,0.9173076923076923,0.6956619972887483,0.0,0.7561141304347826,0.9125666864256076,0.0,0.8289473684210527,0.7894871794871795,0.0,3640,4426,0,119,1.0,0.3333333333333333,0.0,0.0,1.0,0.0,0.0,1.0,0.0,0.0,1.0,0,0,119,292,0.04794520547945205,0.030501089324618733,0.0,0.0,0.04794520547945205,0.0,0.0,1.0,0.0,0.0,0.0915032679738562,0,0,292,8185,0.7986560781918143,0.6938231891211618,0.9173076923076923,0.6956619972887483,1.0,0.7561141304347826,0.9125666864256076,0.3012658227848101,0.8289473684210527,0.7894871794871795,0.46303501945525294,3640,4426,119,0.03421770394247459,0.3236009732360097,1.0432491015182228
simple_pc1_gm_gate_t254,score_all_max,0.01,qrs_visibility__le,0.0524517835345784,110,8477,0.7727969800637018,0.6384112109981435,0.9173076923076923,0.6956619972887483,0.3236009732360097,0.7222582738481506,0.8934997098084736,0.32598039215686275,0.8081810480455041,0.7822662601626016,0.3247863247863248,3640,4426,411,8066,0.7956855938507315,0.5394438875151298,0.9173076923076923,0.6956619972887483,0.0,0.7559429477020603,0.9125666864256076,0.0,0.8288444830582102,0.7894871794871795,0.0,3640,4426,0,119,1.0,0.3333333333333333,0.0,0.0,1.0,0.0,0.0,1.0,0.0,0.0,1.0,0,0,119,292,0.04794520547945205,0.030501089324618733,0.0,0.0,0.04794520547945205,0.0,0.0,1.0,0.0,0.0,0.0915032679738562,0,0,292,8185,0.7986560781918143,0.6940897614592494,0.9173076923076923,0.6956619972887483,1.0,0.7559429477020603,0.9125666864256076,0.3020304568527919,0.8288444830582102,0.7894871794871795,0.46393762183235865,3640,4426,119,0.034093726754277215,0.3236009732360097,1.0432491015182228
simple_pc1_gm_gate_t254,score_core,0.01,pc1__le,-0.7734152380448813,111,8477,0.7727969800637018,0.6383117903891458,0.9173076923076923,0.6956619972887483,0.3236009732360097,0.7224145391605366,0.8934997098084736,0.3251833740831296,0.8082788671023965,0.7822662601626016,0.32439024390243903,3640,4426,411,8066,0.7956855938507315,0.5394781826360774,0.9173076923076923,0.6956619972887483,0.0,0.7561141304347826,0.9125666864256076,0.0,0.8289473684210527,0.7894871794871795,0.0,3640,4426,0,119,1.0,0.3333333333333333,0.0,0.0,1.0,0.0,0.0,1.0,0.0,0.0,1.0,0,0,119,292,0.04794520547945205,0.030501089324618733,0.0,0.0,0.04794520547945205,0.0,0.0,1.0,0.0,0.0,0.0915032679738562,0,0,292,8185,0.7986560781918143,0.6938231891211618,0.9173076923076923,0.6956619972887483,1.0,0.7561141304347826,0.9125666864256076,0.3012658227848101,0.8289473684210527,0.7894871794871795,0.46303501945525294,3640,4426,119,0.03421770394247459,0.3236009732360097,1.0432491015182228
simple_pc1_gm_gate_t254,score_core,0.01,pc2__ge,10.616705266871826,111,8477,0.7727969800637018,0.6383117903891458,0.9173076923076923,0.6956619972887483,0.3236009732360097,0.7224145391605366,0.8934997098084736,0.3251833740831296,0.8082788671023965,0.7822662601626016,0.32439024390243903,3640,4426,411,8066,0.7956855938507315,0.5394781826360774,0.9173076923076923,0.6956619972887483,0.0,0.7561141304347826,0.9125666864256076,0.0,0.8289473684210527,0.7894871794871795,0.0,3640,4426,0,119,1.0,0.3333333333333333,0.0,0.0,1.0,0.0,0.0,1.0,0.0,0.0,1.0,0,0,119,292,0.04794520547945205,0.030501089324618733,0.0,0.0,0.04794520547945205,0.0,0.0,1.0,0.0,0.0,0.0915032679738562,0,0,292,8185,0.7986560781918143,0.6938231891211618,0.9173076923076923,0.6956619972887483,1.0,0.7561141304347826,0.9125666864256076,0.3012658227848101,0.8289473684210527,0.7894871794871795,0.46303501945525294,3640,4426,119,0.03421770394247459,0.3236009732360097,1.0432491015182228
simple_pc1_gm_gate_t254,score_core,0.01,qrs_visibility__le,0.0524517835345784,110,8477,0.7727969800637018,0.6384112109981435,0.9173076923076923,0.6956619972887483,0.3236009732360097,0.7222582738481506,0.8934997098084736,0.32598039215686275,0.8081810480455041,0.7822662601626016,0.3247863247863248,3640,4426,411,8066,0.7956855938507315,0.5394438875151298,0.9173076923076923,0.6956619972887483,0.0,0.7559429477020603,0.9125666864256076,0.0,0.8288444830582102,0.7894871794871795,0.0,3640,4426,0,119,1.0,0.3333333333333333,0.0,0.0,1.0,0.0,0.0,1.0,0.0,0.0,1.0,0,0,119,292,0.04794520547945205,0.030501089324618733,0.0,0.0,0.04794520547945205,0.0,0.0,1.0,0.0,0.0,0.0915032679738562,0,0,292,8185,0.7986560781918143,0.6940897614592494,0.9173076923076923,0.6956619972887483,1.0,0.7559429477020603,0.9125666864256076,0.3020304568527919,0.8288444830582102,0.7894871794871795,0.46393762183235865,3640,4426,119,0.034093726754277215,0.3236009732360097,1.0432491015182228
simple_pc1_gm_gate_t254,score_outlier,0.01,pc1__le,-0.7734152380448813,111,8477,0.7727969800637018,0.6383117903891458,0.9173076923076923,0.6956619972887483,0.3236009732360097,0.7224145391605366,0.8934997098084736,0.3251833740831296,0.8082788671023965,0.7822662601626016,0.32439024390243903,3640,4426,411,8066,0.7956855938507315,0.5394781826360774,0.9173076923076923,0.6956619972887483,0.0,0.7561141304347826,0.9125666864256076,0.0,0.8289473684210527,0.7894871794871795,0.0,3640,4426,0,119,1.0,0.3333333333333333,0.0,0.0,1.0,0.0,0.0,1.0,0.0,0.0,1.0,0,0,119,292,0.04794520547945205,0.030501089324618733,0.0,0.0,0.04794520547945205,0.0,0.0,1.0,0.0,0.0,0.0915032679738562,0,0,292,8185,0.7986560781918143,0.6938231891211618,0.9173076923076923,0.6956619972887483,1.0,0.7561141304347826,0.9125666864256076,0.3012658227848101,0.8289473684210527,0.7894871794871795,0.46303501945525294,3640,4426,119,0.03421770394247459,0.3236009732360097,1.0432491015182228
simple_pc1_gm_gate_t254,score_outlier,0.01,pc2__ge,10.616705266871826,111,8477,0.7727969800637018,0.6383117903891458,0.9173076923076923,0.6956619972887483,0.3236009732360097,0.7224145391605366,0.8934997098084736,0.3251833740831296,0.8082788671023965,0.7822662601626016,0.32439024390243903,3640,4426,411,8066,0.7956855938507315,0.5394781826360774,0.9173076923076923,0.6956619972887483,0.0,0.7561141304347826,0.9125666864256076,0.0,0.8289473684210527,0.7894871794871795,0.0,3640,4426,0,119,1.0,0.3333333333333333,0.0,0.0,1.0,0.0,0.0,1.0,0.0,0.0,1.0,0,0,119,292,0.04794520547945205,0.030501089324618733,0.0,0.0,0.04794520547945205,0.0,0.0,1.0,0.0,0.0,0.0915032679738562,0,0,292,8185,0.7986560781918143,0.6938231891211618,0.9173076923076923,0.6956619972887483,1.0,0.7561141304347826,0.9125666864256076,0.3012658227848101,0.8289473684210527,0.7894871794871795,0.46303501945525294,3640,4426,119,0.03421770394247459,0.3236009732360097,1.0432491015182228
simple_pc1_gm_gate_t254,score_outlier,0.01,qrs_visibility__le,0.0524517835345784,110,8477,0.7727969800637018,0.6384112109981435,0.9173076923076923,0.6956619972887483,0.3236009732360097,0.7222582738481506,0.8934997098084736,0.32598039215686275,0.8081810480455041,0.7822662601626016,0.3247863247863248,3640,4426,411,8066,0.7956855938507315,0.5394438875151298,0.9173076923076923,0.6956619972887483,0.0,0.7559429477020603,0.9125666864256076,0.0,0.8288444830582102,0.7894871794871795,0.0,3640,4426,0,119,1.0,0.3333333333333333,0.0,0.0,1.0,0.0,0.0,1.0,0.0,0.0,1.0,0,0,119,292,0.04794520547945205,0.030501089324618733,0.0,0.0,0.04794520547945205,0.0,0.0,1.0,0.0,0.0,0.0915032679738562,0,0,292,8185,0.7986560781918143,0.6940897614592494,0.9173076923076923,0.6956619972887483,1.0,0.7559429477020603,0.9125666864256076,0.3020304568527919,0.8288444830582102,0.7894871794871795,0.46393762183235865,3640,4426,119,0.034093726754277215,0.3236009732360097,1.0432491015182228
simple_pc1_gm_gate_t254,score_dual,0.01,pc1__le,0.15713262094765446,112,8477,0.7726790138020526,0.6381285145727904,0.9173076923076923,0.6954360596475373,0.3236009732360097,0.7224145391605366,0.8934687953555878,0.32439024390243903,0.8082788671023965,0.782111548723161,0.32399512789281365,3640,4426,411,8066,0.7955616166625341,0.539426444685891,0.9173076923076923,0.6954360596475373,0.0,0.7561141304347826,0.9125407648977172,0.0,0.8289473684210527,0.7893319656366201,0.0,3640,4426,0,119,1.0,0.3333333333333333,0.0,0.0,1.0,0.0,0.0,1.0,0.0,0.0,1.0,0,0,119,292,0.04794520547945205,0.030501089324618733,0.0,0.0,0.04794520547945205,0.0,0.0,1.0,0.0,0.0,0.0915032679738562,0,0,292,8185,0.7985339034819793,0.6934717521292567,0.9173076923076923,0.6954360596475373,1.0,0.7561141304347826,0.9125407648977172,0.3005050505050505,0.8289473684210527,0.7893319656366201,0.4621359223300971,3640,4426,119,0.03434168113067196,0.3236009732360097,1.0431311352565737
simple_pc1_gm_gate_t254,score_dual,0.01,pc2__ge,5.370042063114319,112,8477,0.7726790138020526,0.6381285145727904,0.9173076923076923,0.6954360596475373,0.3236009732360097,0.7224145391605366,0.8934687953555878,0.32439024390243903,0.8082788671023965,0.782111548723161,0.32399512789281365,3640,4426,411,8066,0.7955616166625341,0.539426444685891,0.9173076923076923,0.6954360596475373,0.0,0.7561141304347826,0.9125407648977172,0.0,0.8289473684210527,0.7893319656366201,0.0,3640,4426,0,119,1.0,0.3333333333333333,0.0,0.0,1.0,0.0,0.0,1.0,0.0,0.0,1.0,0,0,119,292,0.04794520547945205,0.030501089324618733,0.0,0.0,0.04794520547945205,0.0,0.0,1.0,0.0,0.0,0.0915032679738562,0,0,292,8185,0.7985339034819793,0.6934717521292567,0.9173076923076923,0.6954360596475373,1.0,0.7561141304347826,0.9125407648977172,0.3005050505050505,0.8289473684210527,0.7893319656366201,0.4621359223300971,3640,4426,119,0.03434168113067196,0.3236009732360097,1.0431311352565737
simple_pc1_gm_gate_t254,score_all_max,0.01,pc1__le,0.15713262094765446,112,8477,0.7726790138020526,0.6381285145727904,0.9173076923076923,0.6954360596475373,0.3236009732360097,0.7224145391605366,0.8934687953555878,0.32439024390243903,0.8082788671023965,0.782111548723161,0.32399512789281365,3640,4426,411,8066,0.7955616166625341,0.539426444685891,0.9173076923076923,0.6954360596475373,0.0,0.7561141304347826,0.9125407648977172,0.0,0.8289473684210527,0.7893319656366201,0.0,3640,4426,0,119,1.0,0.3333333333333333,0.0,0.0,1.0,0.0,0.0,1.0,0.0,0.0,1.0,0,0,119,292,0.04794520547945205,0.030501089324618733,0.0,0.0,0.04794520547945205,0.0,0.0,1.0,0.0,0.0,0.0915032679738562,0,0,292,8185,0.7985339034819793,0.6934717521292567,0.9173076923076923,0.6954360596475373,1.0,0.7561141304347826,0.9125407648977172,0.3005050505050505,0.8289473684210527,0.7893319656366201,0.4621359223300971,3640,4426,119,0.03434168113067196,0.3236009732360097,1.0431311352565737
simple_pc1_gm_gate_t254,score_all_max,0.01,pc2__ge,5.370042063114319,112,8477,0.7726790138020526,0.6381285145727904,0.9173076923076923,0.6954360596475373,0.3236009732360097,0.7224145391605366,0.8934687953555878,0.32439024390243903,0.8082788671023965,0.782111548723161,0.32399512789281365,3640,4426,411,8066,0.7955616166625341,0.539426444685891,0.9173076923076923,0.6954360596475373,0.0,0.7561141304347826,0.9125407648977172,0.0,0.8289473684210527,0.7893319656366201,0.0,3640,4426,0,119,1.0,0.3333333333333333,0.0,0.0,1.0,0.0,0.0,1.0,0.0,0.0,1.0,0,0,119,292,0.04794520547945205,0.030501089324618733,0.0,0.0,0.04794520547945205,0.0,0.0,1.0,0.0,0.0,0.0915032679738562,0,0,292,8185,0.7985339034819793,0.6934717521292567,0.9173076923076923,0.6954360596475373,1.0,0.7561141304347826,0.9125407648977172,0.3005050505050505,0.8289473684210527,0.7893319656366201,0.4621359223300971,3640,4426,119,0.03434168113067196,0.3236009732360097,1.0431311352565737
simple_pc1_gm_gate_t254,score_core,0.01,pc1__le,0.15713262094765446,112,8477,0.7726790138020526,0.6381285145727904,0.9173076923076923,0.6954360596475373,0.3236009732360097,0.7224145391605366,0.8934687953555878,0.32439024390243903,0.8082788671023965,0.782111548723161,0.32399512789281365,3640,4426,411,8066,0.7955616166625341,0.539426444685891,0.9173076923076923,0.6954360596475373,0.0,0.7561141304347826,0.9125407648977172,0.0,0.8289473684210527,0.7893319656366201,0.0,3640,4426,0,119,1.0,0.3333333333333333,0.0,0.0,1.0,0.0,0.0,1.0,0.0,0.0,1.0,0,0,119,292,0.04794520547945205,0.030501089324618733,0.0,0.0,0.04794520547945205,0.0,0.0,1.0,0.0,0.0,0.0915032679738562,0,0,292,8185,0.7985339034819793,0.6934717521292567,0.9173076923076923,0.6954360596475373,1.0,0.7561141304347826,0.9125407648977172,0.3005050505050505,0.8289473684210527,0.7893319656366201,0.4621359223300971,3640,4426,119,0.03434168113067196,0.3236009732360097,1.0431311352565737
simple_pc1_gm_gate_t254,score_core,0.01,pc2__ge,5.370042063114319,112,8477,0.7726790138020526,0.6381285145727904,0.9173076923076923,0.6954360596475373,0.3236009732360097,0.7224145391605366,0.8934687953555878,0.32439024390243903,0.8082788671023965,0.782111548723161,0.32399512789281365,3640,4426,411,8066,0.7955616166625341,0.539426444685891,0.9173076923076923,0.6954360596475373,0.0,0.7561141304347826,0.9125407648977172,0.0,0.8289473684210527,0.7893319656366201,0.0,3640,4426,0,119,1.0,0.3333333333333333,0.0,0.0,1.0,0.0,0.0,1.0,0.0,0.0,1.0,0,0,119,292,0.04794520547945205,0.030501089324618733,0.0,0.0,0.04794520547945205,0.0,0.0,1.0,0.0,0.0,0.0915032679738562,0,0,292,8185,0.7985339034819793,0.6934717521292567,0.9173076923076923,0.6954360596475373,1.0,0.7561141304347826,0.9125407648977172,0.3005050505050505,0.8289473684210527,0.7893319656366201,0.4621359223300971,3640,4426,119,0.03434168113067196,0.3236009732360097,1.0431311352565737
simple_pc1_gm_gate_t254,score_outlier,0.01,pc1__le,0.15713262094765446,112,8477,0.7726790138020526,0.6381285145727904,0.9173076923076923,0.6954360596475373,0.3236009732360097,0.7224145391605366,0.8934687953555878,0.32439024390243903,0.8082788671023965,0.782111548723161,0.32399512789281365,3640,4426,411,8066,0.7955616166625341,0.539426444685891,0.9173076923076923,0.6954360596475373,0.0,0.7561141304347826,0.9125407648977172,0.0,0.8289473684210527,0.7893319656366201,0.0,3640,4426,0,119,1.0,0.3333333333333333,0.0,0.0,1.0,0.0,0.0,1.0,0.0,0.0,1.0,0,0,119,292,0.04794520547945205,0.030501089324618733,0.0,0.0,0.04794520547945205,0.0,0.0,1.0,0.0,0.0,0.0915032679738562,0,0,292,8185,0.7985339034819793,0.6934717521292567,0.9173076923076923,0.6954360596475373,1.0,0.7561141304347826,0.9125407648977172,0.3005050505050505,0.8289473684210527,0.7893319656366201,0.4621359223300971,3640,4426,119,0.03434168113067196,0.3236009732360097,1.0431311352565737
simple_pc1_gm_gate_t254,score_outlier,0.01,pc2__ge,5.370042063114319,112,8477,0.7726790138020526,0.6381285145727904,0.9173076923076923,0.6954360596475373,0.3236009732360097,0.7224145391605366,0.8934687953555878,0.32439024390243903,0.8082788671023965,0.782111548723161,0.32399512789281365,3640,4426,411,8066,0.7955616166625341,0.539426444685891,0.9173076923076923,0.6954360596475373,0.0,0.7561141304347826,0.9125407648977172,0.0,0.8289473684210527,0.7893319656366201,0.0,3640,4426,0,119,1.0,0.3333333333333333,0.0,0.0,1.0,0.0,0.0,1.0,0.0,0.0,1.0,0,0,119,292,0.04794520547945205,0.030501089324618733,0.0,0.0,0.04794520547945205,0.0,0.0,1.0,0.0,0.0,0.0915032679738562,0,0,292,8185,0.7985339034819793,0.6934717521292567,0.9173076923076923,0.6954360596475373,1.0,0.7561141304347826,0.9125407648977172,0.3005050505050505,0.8289473684210527,0.7893319656366201,0.4621359223300971,3640,4426,119,0.03434168113067196,0.3236009732360097,1.0431311352565737
simple_pc1_gm_gate_t254,score_dual,0.01,pc3__le,2.1506591515994145,113,8477,0.7725610475404034,0.6379455461017898,0.9173076923076923,0.6952101220063263,0.3236009732360097,0.7224145391605366,0.8934378629500581,0.3236009732360097,0.8082788671023965,0.7819567979669632,0.3236009732360097,3640,4426,411,8066,0.7954376394743368,0.539374693466161,0.9173076923076923,0.6952101220063263,0.0,0.7561141304347826,0.9125148279952551,0.0,0.8289473684210527,0.7891767119774301,0.0,3640,4426,0,119,1.0,0.3333333333333333,0.0,0.0,1.0,0.0,0.0,1.0,0.0,0.0,1.0,0,0,119,292,0.04794520547945205,0.030501089324618733,0.0,0.0,0.04794520547945205,0.0,0.0,1.0,0.0,0.0,0.0915032679738562,0,0,292,8185,0.7984117287721442,0.6931214634920008,0.9173076923076923,0.6952101220063263,1.0,0.7561141304347826,0.9125148279952551,0.29974811083123426,0.8289473684210527,0.7891767119774301,0.46124031007751937,3640,4426,119,0.03446565831886933,0.3236009732360097,1.0430131689949245
simple_pc1_gm_gate_t254,score_all_max,0.01,pc3__le,2.1506591515994145,113,8477,0.7725610475404034,0.6379455461017898,0.9173076923076923,0.6952101220063263,0.3236009732360097,0.7224145391605366,0.8934378629500581,0.3236009732360097,0.8082788671023965,0.7819567979669632,0.3236009732360097,3640,4426,411,8066,0.7954376394743368,0.539374693466161,0.9173076923076923,0.6952101220063263,0.0,0.7561141304347826,0.9125148279952551,0.0,0.8289473684210527,0.7891767119774301,0.0,3640,4426,0,119,1.0,0.3333333333333333,0.0,0.0,1.0,0.0,0.0,1.0,0.0,0.0,1.0,0,0,119,292,0.04794520547945205,0.030501089324618733,0.0,0.0,0.04794520547945205,0.0,0.0,1.0,0.0,0.0,0.0915032679738562,0,0,292,8185,0.7984117287721442,0.6931214634920008,0.9173076923076923,0.6952101220063263,1.0,0.7561141304347826,0.9125148279952551,0.29974811083123426,0.8289473684210527,0.7891767119774301,0.46124031007751937,3640,4426,119,0.03446565831886933,0.3236009732360097,1.0430131689949245
simple_pc1_gm_gate_t254,score_core,0.01,pc3__le,2.1506591515994145,113,8477,0.7725610475404034,0.6379455461017898,0.9173076923076923,0.6952101220063263,0.3236009732360097,0.7224145391605366,0.8934378629500581,0.3236009732360097,0.8082788671023965,0.7819567979669632,0.3236009732360097,3640,4426,411,8066,0.7954376394743368,0.539374693466161,0.9173076923076923,0.6952101220063263,0.0,0.7561141304347826,0.9125148279952551,0.0,0.8289473684210527,0.7891767119774301,0.0,3640,4426,0,119,1.0,0.3333333333333333,0.0,0.0,1.0,0.0,0.0,1.0,0.0,0.0,1.0,0,0,119,292,0.04794520547945205,0.030501089324618733,0.0,0.0,0.04794520547945205,0.0,0.0,1.0,0.0,0.0,0.0915032679738562,0,0,292,8185,0.7984117287721442,0.6931214634920008,0.9173076923076923,0.6952101220063263,1.0,0.7561141304347826,0.9125148279952551,0.29974811083123426,0.8289473684210527,0.7891767119774301,0.46124031007751937,3640,4426,119,0.03446565831886933,0.3236009732360097,1.0430131689949245
simple_pc1_gm_gate_t254,score_outlier,0.01,pc3__le,2.1506591515994145,113,8477,0.7725610475404034,0.6379455461017898,0.9173076923076923,0.6952101220063263,0.3236009732360097,0.7224145391605366,0.8934378629500581,0.3236009732360097,0.8082788671023965,0.7819567979669632,0.3236009732360097,3640,4426,411,8066,0.7954376394743368,0.539374693466161,0.9173076923076923,0.6952101220063263,0.0,0.7561141304347826,0.9125148279952551,0.0,0.8289473684210527,0.7891767119774301,0.0,3640,4426,0,119,1.0,0.3333333333333333,0.0,0.0,1.0,0.0,0.0,1.0,0.0,0.0,1.0,0,0,119,292,0.04794520547945205,0.030501089324618733,0.0,0.0,0.04794520547945205,0.0,0.0,1.0,0.0,0.0,0.0915032679738562,0,0,292,8185,0.7984117287721442,0.6931214634920008,0.9173076923076923,0.6952101220063263,1.0,0.7561141304347826,0.9125148279952551,0.29974811083123426,0.8289473684210527,0.7891767119774301,0.46124031007751937,3640,4426,119,0.03446565831886933,0.3236009732360097,1.0430131689949245
simple_pc1_gm_gate_t254,score_dual,0.01,qrs_visibility__le,0.1065758014715877,117,8477,0.7720891824938068,0.6372167222940609,0.9173076923076923,0.6943063714414821,0.3236009732360097,0.7224145391605366,0.8933139534883721,0.3204819277108434,0.8082788671023965,0.7813374014747012,0.3220338983050847,3640,4426,411,8066,0.7949417307215473,0.5391675557896538,0.9173076923076923,0.6943063714414821,0.0,0.7561141304347826,0.9124109263657957,0.0,0.8289473684210527,0.7885552989479087,0.0,3640,4426,0,119,1.0,0.3333333333333333,0.0,0.0,1.0,0.0,0.0,1.0,0.0,0.0,1.0,0,0,119,292,0.04794520547945205,0.030501089324618733,0.0,0.0,0.04794520547945205,0.0,0.0,1.0,0.0,0.0,0.0915032679738562,0,0,292,8185,0.797923029932804,0.6917316583537564,0.9173076923076923,0.6943063714414821,1.0,0.7561141304347826,0.9124109263657957,0.2967581047381546,0.8289473684210527,0.7885552989479087,0.4576923076923077,3640,4426,119,0.03496156707165882,0.3236009732360097,1.0425413039483278
simple_pc1_gm_gate_t254,score_all_max,0.01,qrs_visibility__le,0.1065758014715877,117,8477,0.7720891824938068,0.6372167222940609,0.9173076923076923,0.6943063714414821,0.3236009732360097,0.7224145391605366,0.8933139534883721,0.3204819277108434,0.8082788671023965,0.7813374014747012,0.3220338983050847,3640,4426,411,8066,0.7949417307215473,0.5391675557896538,0.9173076923076923,0.6943063714414821,0.0,0.7561141304347826,0.9124109263657957,0.0,0.8289473684210527,0.7885552989479087,0.0,3640,4426,0,119,1.0,0.3333333333333333,0.0,0.0,1.0,0.0,0.0,1.0,0.0,0.0,1.0,0,0,119,292,0.04794520547945205,0.030501089324618733,0.0,0.0,0.04794520547945205,0.0,0.0,1.0,0.0,0.0,0.0915032679738562,0,0,292,8185,0.797923029932804,0.6917316583537564,0.9173076923076923,0.6943063714414821,1.0,0.7561141304347826,0.9124109263657957,0.2967581047381546,0.8289473684210527,0.7885552989479087,0.4576923076923077,3640,4426,119,0.03496156707165882,0.3236009732360097,1.0425413039483278
simple_pc1_gm_gate_t254,score_core,0.01,qrs_visibility__le,0.1065758014715877,117,8477,0.7720891824938068,0.6372167222940609,0.9173076923076923,0.6943063714414821,0.3236009732360097,0.7224145391605366,0.8933139534883721,0.3204819277108434,0.8082788671023965,0.7813374014747012,0.3220338983050847,3640,4426,411,8066,0.7949417307215473,0.5391675557896538,0.9173076923076923,0.6943063714414821,0.0,0.7561141304347826,0.9124109263657957,0.0,0.8289473684210527,0.7885552989479087,0.0,3640,4426,0,119,1.0,0.3333333333333333,0.0,0.0,1.0,0.0,0.0,1.0,0.0,0.0,1.0,0,0,119,292,0.04794520547945205,0.030501089324618733,0.0,0.0,0.04794520547945205,0.0,0.0,1.0,0.0,0.0,0.0915032679738562,0,0,292,8185,0.797923029932804,0.6917316583537564,0.9173076923076923,0.6943063714414821,1.0,0.7561141304347826,0.9124109263657957,0.2967581047381546,0.8289473684210527,0.7885552989479087,0.4576923076923077,3640,4426,119,0.03496156707165882,0.3236009732360097,1.0425413039483278
simple_pc1_gm_gate_t254,score_outlier,0.01,qrs_visibility__le,0.1065758014715877,117,8477,0.7720891824938068,0.6372167222940609,0.9173076923076923,0.6943063714414821,0.3236009732360097,0.7224145391605366,0.8933139534883721,0.3204819277108434,0.8082788671023965,0.7813374014747012,0.3220338983050847,3640,4426,411,8066,0.7949417307215473,0.5391675557896538,0.9173076923076923,0.6943063714414821,0.0,0.7561141304347826,0.9124109263657957,0.0,0.8289473684210527,0.7885552989479087,0.0,3640,4426,0,119,1.0,0.3333333333333333,0.0,0.0,1.0,0.0,0.0,1.0,0.0,0.0,1.0,0,0,119,292,0.04794520547945205,0.030501089324618733,0.0,0.0,0.04794520547945205,0.0,0.0,1.0,0.0,0.0,0.0915032679738562,0,0,292,8185,0.797923029932804,0.6917316583537564,0.9173076923076923,0.6943063714414821,1.0,0.7561141304347826,0.9124109263657957,0.2967581047381546,0.8289473684210527,0.7885552989479087,0.4576923076923077,3640,4426,119,0.03496156707165882,0.3236009732360097,1.0425413039483278
simple_pc1_gm_gate_t254,score_dual,0.01,pc3__le,0.0402656504923967,102,8477,0.7733868113719476,0.6389005327863546,0.9173076923076923,0.6970176231360145,0.32116788321167883,0.7221020761245674,0.8934260063712713,0.33,0.8080832526621491,0.7830943013072725,0.32552404438964244,3640,4426,411,8066,0.7964294569799157,0.5397197502325409,0.9173076923076923,0.6970176231360145,0.0,0.7557718424626528,0.9127218934911243,0.0,0.8287416232315711,0.7904176274660517,0.0,3640,4426,0,119,1.0,0.3333333333333333,0.0,0.0,1.0,0.0,0.0,1.0,0.0,0.0,1.0,0,0,119,292,0.04452054794520548,0.028415300546448086,0.0,0.0,0.04452054794520548,0.0,0.0,1.0,0.0,0.0,0.08524590163934426,0,0,292,8185,0.7993891264508247,0.6965049939743064,0.9173076923076923,0.6970176231360145,1.0,0.7557718424626528,0.9127218934911243,0.30749354005167956,0.8287416232315711,0.7904176274660517,0.47035573122529645,3640,4426,119,0.03322588643689561,0.32116788321167883,1.042473652687816
simple_pc1_gm_gate_t254,score_dual,0.02,qrs_visibility__le,0.018109057926941858,66,8477,0.7733868113719476,0.6427628716060564,0.9181318681318681,0.6963398102123813,0.32116788321167883,0.7165523156089194,0.8935923456074224,0.3626373626373626,0.8049132947976878,0.7827301587301587,0.3406451612903226,3640,4426,411,8066,0.7964294569799157,0.5384811683013461,0.9181318681318681,0.6963398102123813,0.0,0.7498317253758133,0.9126443588984305,0.0,0.8254909225639125,0.7899525823401256,0.0,3640,4426,0,119,1.0,0.3333333333333333,0.0,0.0,1.0,0.0,0.0,1.0,0.0,0.0,1.0,0,0,119,292,0.04452054794520548,0.028415300546448086,0.0,0.0,0.04452054794520548,0.0,0.0,1.0,0.0,0.0,0.08524590163934426,0,0,292,8185,0.7993891264508247,0.7072754945424808,0.9181318681318681,0.6963398102123813,1.0,0.7498317253758133,0.9126443588984305,0.33903133903133903,0.8254909225639125,0.7899525823401256,0.5063829787234042,3640,4426,119,0.028762707661790232,0.32116788321167883,1.042473652687816
simple_pc1_gm_gate_t254,score_dual,0.03,qrs_visibility__le,0.018109057926941858,63,8477,0.7733868113719476,0.643107226028922,0.9181318681318681,0.6963398102123813,0.32116788321167883,0.7160917077351617,0.8935923456074224,0.3656509695290859,0.8046226074395089,0.7827301587301587,0.34196891191709844,3640,4426,411,8066,0.7964294569799157,0.5383792558417703,0.9181318681318681,0.6963398102123813,0.0,0.7493273542600897,0.9126443588984305,0.0,0.8251851851851851,0.7899525823401256,0.0,3640,4426,0,119,1.0,0.3333333333333333,0.0,0.0,1.0,0.0,0.0,1.0,0.0,0.0,1.0,0,0,119,292,0.04452054794520548,0.028415300546448086,0.0,0.0,0.04452054794520548,0.0,0.0,1.0,0.0,0.0,0.08524590163934426,0,0,292,8185,0.7993891264508247,0.7082579139431263,0.9181318681318681,0.6963398102123813,1.0,0.7493273542600897,0.9126443588984305,0.34195402298850575,0.8251851851851851,0.7899525823401256,0.5096359743040685,3640,4426,119,0.028390776097198117,0.32116788321167883,1.042473652687816
simple_pc1_gm_gate_t254,score_dual,0.05,qrs_visibility__le,0.018109057926941858,57,8477,0.7733868113719476,0.6438065134853449,0.9181318681318681,0.6963398102123813,0.32116788321167883,0.7151722662101434,0.8935923456074224,0.37183098591549296,0.8040418621436305,0.7827301587301587,0.34464751958224543,3640,4426,411,8066,0.7964294569799157,0.538175657227118,0.9181318681318681,0.6963398102123813,0.0,0.748320644872369,0.9126443588984305,0.0,0.8245743893412287,0.7899525823401256,0.0,3640,4426,0,119,1.0,0.3333333333333333,0.0,0.0,1.0,0.0,0.0,1.0,0.0,0.0,1.0,0,0,119,292,0.04452054794520548,0.028415300546448086,0.0,0.0,0.04452054794520548,0.0,0.0,1.0,0.0,0.0,0.08524590163934426,0,0,292,8185,0.7993891264508247,0.7102653173861926,0.9181318681318681,0.6963398102123813,1.0,0.748320644872369,0.9126443588984305,0.347953216374269,0.8245743893412287,0.7899525823401256,0.5162689804772235,3640,4426,119,0.027646912968013887,0.32116788321167883,1.042473652687816
simple_pc1_gm_gate_t254,score_all_max,0.01,pc3__le,0.0402656504923967,102,8477,0.7733868113719476,0.6389005327863546,0.9173076923076923,0.6970176231360145,0.32116788321167883,0.7221020761245674,0.8934260063712713,0.33,0.8080832526621491,0.7830943013072725,0.32552404438964244,3640,4426,411,8066,0.7964294569799157,0.5397197502325409,0.9173076923076923,0.6970176231360145,0.0,0.7557718424626528,0.9127218934911243,0.0,0.8287416232315711,0.7904176274660517,0.0,3640,4426,0,119,1.0,0.3333333333333333,0.0,0.0,1.0,0.0,0.0,1.0,0.0,0.0,1.0,0,0,119,292,0.04452054794520548,0.028415300546448086,0.0,0.0,0.04452054794520548,0.0,0.0,1.0,0.0,0.0,0.08524590163934426,0,0,292,8185,0.7993891264508247,0.6965049939743064,0.9173076923076923,0.6970176231360145,1.0,0.7557718424626528,0.9127218934911243,0.30749354005167956,0.8287416232315711,0.7904176274660517,0.47035573122529645,3640,4426,119,0.03322588643689561,0.32116788321167883,1.042473652687816
simple_pc1_gm_gate_t254,score_all_max,0.02,qrs_visibility__le,0.018109057926941858,66,8477,0.7733868113719476,0.6427628716060564,0.9181318681318681,0.6963398102123813,0.32116788321167883,0.7165523156089194,0.8935923456074224,0.3626373626373626,0.8049132947976878,0.7827301587301587,0.3406451612903226,3640,4426,411,8066,0.7964294569799157,0.5384811683013461,0.9181318681318681,0.6963398102123813,0.0,0.7498317253758133,0.9126443588984305,0.0,0.8254909225639125,0.7899525823401256,0.0,3640,4426,0,119,1.0,0.3333333333333333,0.0,0.0,1.0,0.0,0.0,1.0,0.0,0.0,1.0,0,0,119,292,0.04452054794520548,0.028415300546448086,0.0,0.0,0.04452054794520548,0.0,0.0,1.0,0.0,0.0,0.08524590163934426,0,0,292,8185,0.7993891264508247,0.7072754945424808,0.9181318681318681,0.6963398102123813,1.0,0.7498317253758133,0.9126443588984305,0.33903133903133903,0.8254909225639125,0.7899525823401256,0.5063829787234042,3640,4426,119,0.028762707661790232,0.32116788321167883,1.042473652687816
simple_pc1_gm_gate_t254,score_all_max,0.03,qrs_visibility__le,0.018109057926941858,63,8477,0.7733868113719476,0.643107226028922,0.9181318681318681,0.6963398102123813,0.32116788321167883,0.7160917077351617,0.8935923456074224,0.3656509695290859,0.8046226074395089,0.7827301587301587,0.34196891191709844,3640,4426,411,8066,0.7964294569799157,0.5383792558417703,0.9181318681318681,0.6963398102123813,0.0,0.7493273542600897,0.9126443588984305,0.0,0.8251851851851851,0.7899525823401256,0.0,3640,4426,0,119,1.0,0.3333333333333333,0.0,0.0,1.0,0.0,0.0,1.0,0.0,0.0,1.0,0,0,119,292,0.04452054794520548,0.028415300546448086,0.0,0.0,0.04452054794520548,0.0,0.0,1.0,0.0,0.0,0.08524590163934426,0,0,292,8185,0.7993891264508247,0.7082579139431263,0.9181318681318681,0.6963398102123813,1.0,0.7493273542600897,0.9126443588984305,0.34195402298850575,0.8251851851851851,0.7899525823401256,0.5096359743040685,3640,4426,119,0.028390776097198117,0.32116788321167883,1.042473652687816
simple_pc1_gm_gate_t254,score_all_max,0.05,qrs_visibility__le,0.018109057926941858,57,8477,0.7733868113719476,0.6438065134853449,0.9181318681318681,0.6963398102123813,0.32116788321167883,0.7151722662101434,0.8935923456074224,0.37183098591549296,0.8040418621436305,0.7827301587301587,0.34464751958224543,3640,4426,411,8066,0.7964294569799157,0.538175657227118,0.9181318681318681,0.6963398102123813,0.0,0.748320644872369,0.9126443588984305,0.0,0.8245743893412287,0.7899525823401256,0.0,3640,4426,0,119,1.0,0.3333333333333333,0.0,0.0,1.0,0.0,0.0,1.0,0.0,0.0,1.0,0,0,119,292,0.04452054794520548,0.028415300546448086,0.0,0.0,0.04452054794520548,0.0,0.0,1.0,0.0,0.0,0.08524590163934426,0,0,292,8185,0.7993891264508247,0.7102653173861926,0.9181318681318681,0.6963398102123813,1.0,0.748320644872369,0.9126443588984305,0.347953216374269,0.8245743893412287,0.7899525823401256,0.5162689804772235,3640,4426,119,0.027646912968013887,0.32116788321167883,1.042473652687816
simple_pc1_gm_gate_t254,score_core,0.01,pc3__le,0.0402656504923967,102,8477,0.7733868113719476,0.6389005327863546,0.9173076923076923,0.6970176231360145,0.32116788321167883,0.7221020761245674,0.8934260063712713,0.33,0.8080832526621491,0.7830943013072725,0.32552404438964244,3640,4426,411,8066,0.7964294569799157,0.5397197502325409,0.9173076923076923,0.6970176231360145,0.0,0.7557718424626528,0.9127218934911243,0.0,0.8287416232315711,0.7904176274660517,0.0,3640,4426,0,119,1.0,0.3333333333333333,0.0,0.0,1.0,0.0,0.0,1.0,0.0,0.0,1.0,0,0,119,292,0.04452054794520548,0.028415300546448086,0.0,0.0,0.04452054794520548,0.0,0.0,1.0,0.0,0.0,0.08524590163934426,0,0,292,8185,0.7993891264508247,0.6965049939743064,0.9173076923076923,0.6970176231360145,1.0,0.7557718424626528,0.9127218934911243,0.30749354005167956,0.8287416232315711,0.7904176274660517,0.47035573122529645,3640,4426,119,0.03322588643689561,0.32116788321167883,1.042473652687816
simple_pc1_gm_gate_t254,score_core,0.02,qrs_visibility__le,0.018109057926941858,66,8477,0.7733868113719476,0.6427628716060564,0.9181318681318681,0.6963398102123813,0.32116788321167883,0.7165523156089194,0.8935923456074224,0.3626373626373626,0.8049132947976878,0.7827301587301587,0.3406451612903226,3640,4426,411,8066,0.7964294569799157,0.5384811683013461,0.9181318681318681,0.6963398102123813,0.0,0.7498317253758133,0.9126443588984305,0.0,0.8254909225639125,0.7899525823401256,0.0,3640,4426,0,119,1.0,0.3333333333333333,0.0,0.0,1.0,0.0,0.0,1.0,0.0,0.0,1.0,0,0,119,292,0.04452054794520548,0.028415300546448086,0.0,0.0,0.04452054794520548,0.0,0.0,1.0,0.0,0.0,0.08524590163934426,0,0,292,8185,0.7993891264508247,0.7072754945424808,0.9181318681318681,0.6963398102123813,1.0,0.7498317253758133,0.9126443588984305,0.33903133903133903,0.8254909225639125,0.7899525823401256,0.5063829787234042,3640,4426,119,0.028762707661790232,0.32116788321167883,1.042473652687816
simple_pc1_gm_gate_t254,score_core,0.03,qrs_visibility__le,0.018109057926941858,63,8477,0.7733868113719476,0.643107226028922,0.9181318681318681,0.6963398102123813,0.32116788321167883,0.7160917077351617,0.8935923456074224,0.3656509695290859,0.8046226074395089,0.7827301587301587,0.34196891191709844,3640,4426,411,8066,0.7964294569799157,0.5383792558417703,0.9181318681318681,0.6963398102123813,0.0,0.7493273542600897,0.9126443588984305,0.0,0.8251851851851851,0.7899525823401256,0.0,3640,4426,0,119,1.0,0.3333333333333333,0.0,0.0,1.0,0.0,0.0,1.0,0.0,0.0,1.0,0,0,119,292,0.04452054794520548,0.028415300546448086,0.0,0.0,0.04452054794520548,0.0,0.0,1.0,0.0,0.0,0.08524590163934426,0,0,292,8185,0.7993891264508247,0.7082579139431263,0.9181318681318681,0.6963398102123813,1.0,0.7493273542600897,0.9126443588984305,0.34195402298850575,0.8251851851851851,0.7899525823401256,0.5096359743040685,3640,4426,119,0.028390776097198117,0.32116788321167883,1.042473652687816
simple_pc1_gm_gate_t254,score_core,0.05,qrs_visibility__le,0.018109057926941858,57,8477,0.7733868113719476,0.6438065134853449,0.9181318681318681,0.6963398102123813,0.32116788321167883,0.7151722662101434,0.8935923456074224,0.37183098591549296,0.8040418621436305,0.7827301587301587,0.34464751958224543,3640,4426,411,8066,0.7964294569799157,0.538175657227118,0.9181318681318681,0.6963398102123813,0.0,0.748320644872369,0.9126443588984305,0.0,0.8245743893412287,0.7899525823401256,0.0,3640,4426,0,119,1.0,0.3333333333333333,0.0,0.0,1.0,0.0,0.0,1.0,0.0,0.0,1.0,0,0,119,292,0.04452054794520548,0.028415300546448086,0.0,0.0,0.04452054794520548,0.0,0.0,1.0,0.0,0.0,0.08524590163934426,0,0,292,8185,0.7993891264508247,0.7102653173861926,0.9181318681318681,0.6963398102123813,1.0,0.748320644872369,0.9126443588984305,0.347953216374269,0.8245743893412287,0.7899525823401256,0.5162689804772235,3640,4426,119,0.027646912968013887,0.32116788321167883,1.042473652687816
simple_pc1_gm_gate_t254,score_outlier,0.01,pc3__le,0.0402656504923967,102,8477,0.7733868113719476,0.6389005327863546,0.9173076923076923,0.6970176231360145,0.32116788321167883,0.7221020761245674,0.8934260063712713,0.33,0.8080832526621491,0.7830943013072725,0.32552404438964244,3640,4426,411,8066,0.7964294569799157,0.5397197502325409,0.9173076923076923,0.6970176231360145,0.0,0.7557718424626528,0.9127218934911243,0.0,0.8287416232315711,0.7904176274660517,0.0,3640,4426,0,119,1.0,0.3333333333333333,0.0,0.0,1.0,0.0,0.0,1.0,0.0,0.0,1.0,0,0,119,292,0.04452054794520548,0.028415300546448086,0.0,0.0,0.04452054794520548,0.0,0.0,1.0,0.0,0.0,0.08524590163934426,0,0,292,8185,0.7993891264508247,0.6965049939743064,0.9173076923076923,0.6970176231360145,1.0,0.7557718424626528,0.9127218934911243,0.30749354005167956,0.8287416232315711,0.7904176274660517,0.47035573122529645,3640,4426,119,0.03322588643689561,0.32116788321167883,1.042473652687816
simple_pc1_gm_gate_t254,score_outlier,0.02,qrs_visibility__le,0.018109057926941858,66,8477,0.7733868113719476,0.6427628716060564,0.9181318681318681,0.6963398102123813,0.32116788321167883,0.7165523156089194,0.8935923456074224,0.3626373626373626,0.8049132947976878,0.7827301587301587,0.3406451612903226,3640,4426,411,8066,0.7964294569799157,0.5384811683013461,0.9181318681318681,0.6963398102123813,0.0,0.7498317253758133,0.9126443588984305,0.0,0.8254909225639125,0.7899525823401256,0.0,3640,4426,0,119,1.0,0.3333333333333333,0.0,0.0,1.0,0.0,0.0,1.0,0.0,0.0,1.0,0,0,119,292,0.04452054794520548,0.028415300546448086,0.0,0.0,0.04452054794520548,0.0,0.0,1.0,0.0,0.0,0.08524590163934426,0,0,292,8185,0.7993891264508247,0.7072754945424808,0.9181318681318681,0.6963398102123813,1.0,0.7498317253758133,0.9126443588984305,0.33903133903133903,0.8254909225639125,0.7899525823401256,0.5063829787234042,3640,4426,119,0.028762707661790232,0.32116788321167883,1.042473652687816
simple_pc1_gm_gate_t254,score_outlier,0.03,qrs_visibility__le,0.018109057926941858,63,8477,0.7733868113719476,0.643107226028922,0.9181318681318681,0.6963398102123813,0.32116788321167883,0.7160917077351617,0.8935923456074224,0.3656509695290859,0.8046226074395089,0.7827301587301587,0.34196891191709844,3640,4426,411,8066,0.7964294569799157,0.5383792558417703,0.9181318681318681,0.6963398102123813,0.0,0.7493273542600897,0.9126443588984305,0.0,0.8251851851851851,0.7899525823401256,0.0,3640,4426,0,119,1.0,0.3333333333333333,0.0,0.0,1.0,0.0,0.0,1.0,0.0,0.0,1.0,0,0,119,292,0.04452054794520548,0.028415300546448086,0.0,0.0,0.04452054794520548,0.0,0.0,1.0,0.0,0.0,0.08524590163934426,0,0,292,8185,0.7993891264508247,0.7082579139431263,0.9181318681318681,0.6963398102123813,1.0,0.7493273542600897,0.9126443588984305,0.34195402298850575,0.8251851851851851,0.7899525823401256,0.5096359743040685,3640,4426,119,0.028390776097198117,0.32116788321167883,1.042473652687816
simple_pc1_gm_gate_t254,score_outlier,0.05,qrs_visibility__le,0.018109057926941858,57,8477,0.7733868113719476,0.6438065134853449,0.9181318681318681,0.6963398102123813,0.32116788321167883,0.7151722662101434,0.8935923456074224,0.37183098591549296,0.8040418621436305,0.7827301587301587,0.34464751958224543,3640,4426,411,8066,0.7964294569799157,0.538175657227118,0.9181318681318681,0.6963398102123813,0.0,0.748320644872369,0.9126443588984305,0.0,0.8245743893412287,0.7899525823401256,0.0,3640,4426,0,119,1.0,0.3333333333333333,0.0,0.0,1.0,0.0,0.0,1.0,0.0,0.0,1.0,0,0,119,292,0.04452054794520548,0.028415300546448086,0.0,0.0,0.04452054794520548,0.0,0.0,1.0,0.0,0.0,0.08524590163934426,0,0,292,8185,0.7993891264508247,0.7102653173861926,0.9181318681318681,0.6963398102123813,1.0,0.748320644872369,0.9126443588984305,0.347953216374269,0.8245743893412287,0.7899525823401256,0.5162689804772235,3640,4426,119,0.027646912968013887,0.32116788321167883,1.042473652687816
simple_pc1_gm_gate_t254,score_dual,0.01,pc2__ge,14.810379664891448,99,8477,0.7732688451102985,0.6391216044681391,0.9173076923076923,0.6967916854948034,0.32116788321167883,0.7214779602420052,0.8933951332560834,0.33249370277078083,0.8076923076923077,0.7829398324447829,0.32673267326732675,3640,4426,411,8066,0.7963054797917183,0.5395310304143528,0.9173076923076923,0.6967916854948034,0.0,0.7550881953867028,0.912696063924238,0.0,0.8283304390969982,0.7902626521460602,0.0,3640,4426,0,119,1.0,0.3333333333333333,0.0,0.0,1.0,0.0,0.0,1.0,0.0,0.0,1.0,0,0,119,292,0.04452054794520548,0.028415300546448086,0.0,0.0,0.04452054794520548,0.0,0.0,1.0,0.0,0.0,0.08524590163934426,0,0,292,8185,0.7992669517409896,0.6972513750134249,0.9173076923076923,0.6967916854948034,1.0,0.7550881953867028,0.912696063924238,0.3098958333333333,0.8283304390969982,0.7902626521460602,0.4731610337972167,3640,4426,119,0.0328539548723035,0.32116788321167883,1.042355686426167
simple_pc1_gm_gate_t254,score_all_max,0.01,pc2__ge,14.810379664891448,99,8477,0.7732688451102985,0.6391216044681391,0.9173076923076923,0.6967916854948034,0.32116788321167883,0.7214779602420052,0.8933951332560834,0.33249370277078083,0.8076923076923077,0.7829398324447829,0.32673267326732675,3640,4426,411,8066,0.7963054797917183,0.5395310304143528,0.9173076923076923,0.6967916854948034,0.0,0.7550881953867028,0.912696063924238,0.0,0.8283304390969982,0.7902626521460602,0.0,3640,4426,0,119,1.0,0.3333333333333333,0.0,0.0,1.0,0.0,0.0,1.0,0.0,0.0,1.0,0,0,119,292,0.04452054794520548,0.028415300546448086,0.0,0.0,0.04452054794520548,0.0,0.0,1.0,0.0,0.0,0.08524590163934426,0,0,292,8185,0.7992669517409896,0.6972513750134249,0.9173076923076923,0.6967916854948034,1.0,0.7550881953867028,0.912696063924238,0.3098958333333333,0.8283304390969982,0.7902626521460602,0.4731610337972167,3640,4426,119,0.0328539548723035,0.32116788321167883,1.042355686426167
simple_pc1_gm_gate_t254,score_core,0.01,pc2__ge,14.810379664891448,99,8477,0.7732688451102985,0.6391216044681391,0.9173076923076923,0.6967916854948034,0.32116788321167883,0.7214779602420052,0.8933951332560834,0.33249370277078083,0.8076923076923077,0.7829398324447829,0.32673267326732675,3640,4426,411,8066,0.7963054797917183,0.5395310304143528,0.9173076923076923,0.6967916854948034,0.0,0.7550881953867028,0.912696063924238,0.0,0.8283304390969982,0.7902626521460602,0.0,3640,4426,0,119,1.0,0.3333333333333333,0.0,0.0,1.0,0.0,0.0,1.0,0.0,0.0,1.0,0,0,119,292,0.04452054794520548,0.028415300546448086,0.0,0.0,0.04452054794520548,0.0,0.0,1.0,0.0,0.0,0.08524590163934426,0,0,292,8185,0.7992669517409896,0.6972513750134249,0.9173076923076923,0.6967916854948034,1.0,0.7550881953867028,0.912696063924238,0.3098958333333333,0.8283304390969982,0.7902626521460602,0.4731610337972167,3640,4426,119,0.0328539548723035,0.32116788321167883,1.042355686426167
simple_pc1_gm_gate_t254,score_outlier,0.01,pc2__ge,14.810379664891448,99,8477,0.7732688451102985,0.6391216044681391,0.9173076923076923,0.6967916854948034,0.32116788321167883,0.7214779602420052,0.8933951332560834,0.33249370277078083,0.8076923076923077,0.7829398324447829,0.32673267326732675,3640,4426,411,8066,0.7963054797917183,0.5395310304143528,0.9173076923076923,0.6967916854948034,0.0,0.7550881953867028,0.912696063924238,0.0,0.8283304390969982,0.7902626521460602,0.0,3640,4426,0,119,1.0,0.3333333333333333,0.0,0.0,1.0,0.0,0.0,1.0,0.0,0.0,1.0,0,0,119,292,0.04452054794520548,0.028415300546448086,0.0,0.0,0.04452054794520548,0.0,0.0,1.0,0.0,0.0,0.08524590163934426,0,0,292,8185,0.7992669517409896,0.6972513750134249,0.9173076923076923,0.6967916854948034,1.0,0.7550881953867028,0.912696063924238,0.3098958333333333,0.8283304390969982,0.7902626521460602,0.4731610337972167,3640,4426,119,0.0328539548723035,0.32116788321167883,1.042355686426167
simple_pc1_gm_gate_t254,score_dual,0.01,pc2__ge,1.9185090159687288,119,8477,0.7718532499705084,0.6368541242292283,0.9173076923076923,0.6938544961590601,0.3236009732360097,0.7224145391605366,0.8932518906340896,0.31894484412470026,0.8082788671023965,0.7810274669379451,0.321256038647343,3640,4426,411,8066,0.7946937763451525,0.5390639072012681,0.9173076923076923,0.6938544961590601,0.0,0.7561141304347826,0.9123588829471182,0.0,0.8289473684210527,0.7882443531827515,0.0,3640,4426,0,119,1.0,0.3333333333333333,0.0,0.0,1.0,0.0,0.0,1.0,0.0,0.0,1.0,0,0,119,292,0.04794520547945205,0.030501089324618733,0.0,0.0,0.04794520547945205,0.0,0.0,1.0,0.0,0.0,0.0915032679738562,0,0,292,8185,0.7976786805131337,0.6910434729739373,0.9173076923076923,0.6938544961590601,1.0,0.7561141304347826,0.9123588829471182,0.29528535980148884,0.8289473684210527,0.7882443531827515,0.4559386973180077,3640,4426,119,0.03520952144805356,0.3236009732360097,1.0423053714250294
simple_pc1_gm_gate_t254,score_all_max,0.01,pc2__ge,1.9185090159687288,119,8477,0.7718532499705084,0.6368541242292283,0.9173076923076923,0.6938544961590601,0.3236009732360097,0.7224145391605366,0.8932518906340896,0.31894484412470026,0.8082788671023965,0.7810274669379451,0.321256038647343,3640,4426,411,8066,0.7946937763451525,0.5390639072012681,0.9173076923076923,0.6938544961590601,0.0,0.7561141304347826,0.9123588829471182,0.0,0.8289473684210527,0.7882443531827515,0.0,3640,4426,0,119,1.0,0.3333333333333333,0.0,0.0,1.0,0.0,0.0,1.0,0.0,0.0,1.0,0,0,119,292,0.04794520547945205,0.030501089324618733,0.0,0.0,0.04794520547945205,0.0,0.0,1.0,0.0,0.0,0.0915032679738562,0,0,292,8185,0.7976786805131337,0.6910434729739373,0.9173076923076923,0.6938544961590601,1.0,0.7561141304347826,0.9123588829471182,0.29528535980148884,0.8289473684210527,0.7882443531827515,0.4559386973180077,3640,4426,119,0.03520952144805356,0.3236009732360097,1.0423053714250294
simple_pc1_gm_gate_t254,score_core,0.01,pc2__ge,1.9185090159687288,119,8477,0.7718532499705084,0.6368541242292283,0.9173076923076923,0.6938544961590601,0.3236009732360097,0.7224145391605366,0.8932518906340896,0.31894484412470026,0.8082788671023965,0.7810274669379451,0.321256038647343,3640,4426,411,8066,0.7946937763451525,0.5390639072012681,0.9173076923076923,0.6938544961590601,0.0,0.7561141304347826,0.9123588829471182,0.0,0.8289473684210527,0.7882443531827515,0.0,3640,4426,0,119,1.0,0.3333333333333333,0.0,0.0,1.0,0.0,0.0,1.0,0.0,0.0,1.0,0,0,119,292,0.04794520547945205,0.030501089324618733,0.0,0.0,0.04794520547945205,0.0,0.0,1.0,0.0,0.0,0.0915032679738562,0,0,292,8185,0.7976786805131337,0.6910434729739373,0.9173076923076923,0.6938544961590601,1.0,0.7561141304347826,0.9123588829471182,0.29528535980148884,0.8289473684210527,0.7882443531827515,0.4559386973180077,3640,4426,119,0.03520952144805356,0.3236009732360097,1.0423053714250294
simple_pc1_gm_gate_t254,score_outlier,0.01,pc2__ge,1.9185090159687288,119,8477,0.7718532499705084,0.6368541242292283,0.9173076923076923,0.6938544961590601,0.3236009732360097,0.7224145391605366,0.8932518906340896,0.31894484412470026,0.8082788671023965,0.7810274669379451,0.321256038647343,3640,4426,411,8066,0.7946937763451525,0.5390639072012681,0.9173076923076923,0.6938544961590601,0.0,0.7561141304347826,0.9123588829471182,0.0,0.8289473684210527,0.7882443531827515,0.0,3640,4426,0,119,1.0,0.3333333333333333,0.0,0.0,1.0,0.0,0.0,1.0,0.0,0.0,1.0,0,0,119,292,0.04794520547945205,0.030501089324618733,0.0,0.0,0.04794520547945205,0.0,0.0,1.0,0.0,0.0,0.0915032679738562,0,0,292,8185,0.7976786805131337,0.6910434729739373,0.9173076923076923,0.6938544961590601,1.0,0.7561141304347826,0.9123588829471182,0.29528535980148884,0.8289473684210527,0.7882443531827515,0.4559386973180077,3640,4426,119,0.03520952144805356,0.3236009732360097,1.0423053714250294
simple_pc1_gm_gate_t254,score_dual,0.01,pc3__le,3.281193089810729,120,8477,0.7717352837088592,0.6366732746437994,0.9173076923076923,0.6936285585178491,0.3236009732360097,0.7224145391605366,0.8932208321210358,0.3181818181818182,0.8082788671023965,0.7808724405443215,0.3208685162846803,3640,4426,411,8066,0.7945697991569551,0.5390120629516288,0.9173076923076923,0.6936285585178491,0.0,0.7561141304347826,0.912332838038633,0.0,0.8289473684210527,0.7880888204338339,0.0,3640,4426,0,119,1.0,0.3333333333333333,0.0,0.0,1.0,0.0,0.0,1.0,0.0,0.0,1.0,0,0,119,292,0.04794520547945205,0.030501089324618733,0.0,0.0,0.04794520547945205,0.0,0.0,1.0,0.0,0.0,0.0915032679738562,0,0,292,8185,0.7975565058032987,0.690701036820335,0.9173076923076923,0.6936285585178491,1.0,0.7561141304347826,0.912332838038633,0.29455445544554454,0.8289473684210527,0.7880888204338339,0.45506692160611856,3640,4426,119,0.03533349863625093,0.3236009732360097,1.0421874051633804
simple_pc1_gm_gate_t254,score_all_max,0.01,pc3__le,3.281193089810729,120,8477,0.7717352837088592,0.6366732746437994,0.9173076923076923,0.6936285585178491,0.3236009732360097,0.7224145391605366,0.8932208321210358,0.3181818181818182,0.8082788671023965,0.7808724405443215,0.3208685162846803,3640,4426,411,8066,0.7945697991569551,0.5390120629516288,0.9173076923076923,0.6936285585178491,0.0,0.7561141304347826,0.912332838038633,0.0,0.8289473684210527,0.7880888204338339,0.0,3640,4426,0,119,1.0,0.3333333333333333,0.0,0.0,1.0,0.0,0.0,1.0,0.0,0.0,1.0,0,0,119,292,0.04794520547945205,0.030501089324618733,0.0,0.0,0.04794520547945205,0.0,0.0,1.0,0.0,0.0,0.0915032679738562,0,0,292,8185,0.7975565058032987,0.690701036820335,0.9173076923076923,0.6936285585178491,1.0,0.7561141304347826,0.912332838038633,0.29455445544554454,0.8289473684210527,0.7880888204338339,0.45506692160611856,3640,4426,119,0.03533349863625093,0.3236009732360097,1.0421874051633804
simple_pc1_gm_gate_t254,score_core,0.01,pc3__le,3.281193089810729,120,8477,0.7717352837088592,0.6366732746437994,0.9173076923076923,0.6936285585178491,0.3236009732360097,0.7224145391605366,0.8932208321210358,0.3181818181818182,0.8082788671023965,0.7808724405443215,0.3208685162846803,3640,4426,411,8066,0.7945697991569551,0.5390120629516288,0.9173076923076923,0.6936285585178491,0.0,0.7561141304347826,0.912332838038633,0.0,0.8289473684210527,0.7880888204338339,0.0,3640,4426,0,119,1.0,0.3333333333333333,0.0,0.0,1.0,0.0,0.0,1.0,0.0,0.0,1.0,0,0,119,292,0.04794520547945205,0.030501089324618733,0.0,0.0,0.04794520547945205,0.0,0.0,1.0,0.0,0.0,0.0915032679738562,0,0,292,8185,0.7975565058032987,0.690701036820335,0.9173076923076923,0.6936285585178491,1.0,0.7561141304347826,0.912332838038633,0.29455445544554454,0.8289473684210527,0.7880888204338339,0.45506692160611856,3640,4426,119,0.03533349863625093,0.3236009732360097,1.0421874051633804
simple_pc1_gm_gate_t254,score_outlier,0.01,pc3__le,3.281193089810729,120,8477,0.7717352837088592,0.6366732746437994,0.9173076923076923,0.6936285585178491,0.3236009732360097,0.7224145391605366,0.8932208321210358,0.3181818181818182,0.8082788671023965,0.7808724405443215,0.3208685162846803,3640,4426,411,8066,0.7945697991569551,0.5390120629516288,0.9173076923076923,0.6936285585178491,0.0,0.7561141304347826,0.912332838038633,0.0,0.8289473684210527,0.7880888204338339,0.0,3640,4426,0,119,1.0,0.3333333333333333,0.0,0.0,1.0,0.0,0.0,1.0,0.0,0.0,1.0,0,0,119,292,0.04794520547945205,0.030501089324618733,0.0,0.0,0.04794520547945205,0.0,0.0,1.0,0.0,0.0,0.0915032679738562,0,0,292,8185,0.7975565058032987,0.690701036820335,0.9173076923076923,0.6936285585178491,1.0,0.7561141304347826,0.912332838038633,0.29455445544554454,0.8289473684210527,0.7880888204338339,0.45506692160611856,3640,4426,119,0.03533349863625093,0.3236009732360097,1.0421874051633804
simple_pc1_gm_gate_t254,score_dual,0.03,pc1__le,-0.7734152380448813,79,8477,0.7730329125870001,0.6410620311829098,0.9178571428571428,0.6958879349299594,0.32116788321167883,0.7180313776058457,0.89353060632434,0.35013262599469497,0.8057397805378029,0.7824209323002668,0.3350253807106599,3640,4426,411,8066,0.7960575254153236,0.5386696376766493,0.9178571428571428,0.6958879349299594,0.0,0.7514619883040936,0.9125925925925926,0.0,0.8263665594855305,0.7896423535444174,0.0,3640,4426,0,119,1.0,0.3333333333333333,0.0,0.0,1.0,0.0,0.0,1.0,0.0,0.0,1.0,0,0,119,292,0.04452054794520548,0.028415300546448086,0.0,0.0,0.04452054794520548,0.0,0.0,1.0,0.0,0.0,0.08524590163934426,0,0,292,8185,0.7990226023213195,0.7029208454061179,0.9178571428571428,0.6958879349299594,1.0,0.7514619883040936,0.9125925925925926,0.3269230769230769,0.8263665594855305,0.7896423535444174,0.4927536231884058,3640,4426,119,0.030374411108356064,0.32116788321167883,1.0421197539028686
simple_pc1_gm_gate_t254,score_dual,0.03,pc2__ge,10.616705266871826,79,8477,0.7730329125870001,0.6410620311829098,0.9178571428571428,0.6958879349299594,0.32116788321167883,0.7180313776058457,0.89353060632434,0.35013262599469497,0.8057397805378029,0.7824209323002668,0.3350253807106599,3640,4426,411,8066,0.7960575254153236,0.5386696376766493,0.9178571428571428,0.6958879349299594,0.0,0.7514619883040936,0.9125925925925926,0.0,0.8263665594855305,0.7896423535444174,0.0,3640,4426,0,119,1.0,0.3333333333333333,0.0,0.0,1.0,0.0,0.0,1.0,0.0,0.0,1.0,0,0,119,292,0.04452054794520548,0.028415300546448086,0.0,0.0,0.04452054794520548,0.0,0.0,1.0,0.0,0.0,0.08524590163934426,0,0,292,8185,0.7990226023213195,0.7029208454061179,0.9178571428571428,0.6958879349299594,1.0,0.7514619883040936,0.9125925925925926,0.3269230769230769,0.8263665594855305,0.7896423535444174,0.4927536231884058,3640,4426,119,0.030374411108356064,0.32116788321167883,1.0421197539028686
simple_pc1_gm_gate_t254,score_dual,0.03,qrs_visibility__le,0.0524517835345784,78,8477,0.7730329125870001,0.6411715485266443,0.9178571428571428,0.6958879349299594,0.32116788321167883,0.7178770949720671,0.89353060632434,0.35106382978723405,0.8056426332288401,0.7824209323002668,0.3354510800508259,3640,4426,411,8066,0.7960575254153236,0.5386355761557109,0.9178571428571428,0.6958879349299594,0.0,0.7512930065212503,0.9125925925925926,0.0,0.8262643749227154,0.7896423535444174,0.0,3640,4426,0,119,1.0,0.3333333333333333,0.0,0.0,1.0,0.0,0.0,1.0,0.0,0.0,1.0,0,0,119,292,0.04452054794520548,0.028415300546448086,0.0,0.0,0.04452054794520548,0.0,0.0,1.0,0.0,0.0,0.08524590163934426,0,0,292,8185,0.7990226023213195,0.703227554025697,0.9178571428571428,0.6958879349299594,1.0,0.7512930065212503,0.9125925925925926,0.3278236914600551,0.8262643749227154,0.7896423535444174,0.49377593360995853,3640,4426,119,0.030250433920158692,0.32116788321167883,1.0421197539028686
simple_pc1_gm_gate_t254,score_dual,0.05,pc1__le,-0.7734152380448813,73,8477,0.7730329125870001,0.6417246960299479,0.9178571428571428,0.6958879349299594,0.32116788321167883,0.7171066752522001,0.89353060632434,0.3557951482479784,0.8051572478611881,0.7824209323002668,0.3375959079283887,3640,4426,411,8066,0.7960575254153236,0.5384653948295198,0.9178571428571428,0.6958879349299594,0.0,0.7504492362982929,0.9125925925925926,0.0,0.8257538309441423,0.7896423535444174,0.0,3640,4426,0,119,1.0,0.3333333333333333,0.0,0.0,1.0,0.0,0.0,1.0,0.0,0.0,1.0,0,0,119,292,0.04452054794520548,0.028415300546448086,0.0,0.0,0.04452054794520548,0.0,0.0,1.0,0.0,0.0,0.08524590163934426,0,0,292,8185,0.7990226023213195,0.7047826554864032,0.9178571428571428,0.6958879349299594,1.0,0.7504492362982929,0.9125925925925926,0.3324022346368715,0.8257538309441423,0.7896423535444174,0.4989517819706499,3640,4426,119,0.029630547979171834,0.32116788321167883,1.0421197539028686
simple_pc1_gm_gate_t254,score_dual,0.05,pc2__ge,10.616705266871826,73,8477,0.7730329125870001,0.6417246960299479,0.9178571428571428,0.6958879349299594,0.32116788321167883,0.7171066752522001,0.89353060632434,0.3557951482479784,0.8051572478611881,0.7824209323002668,0.3375959079283887,3640,4426,411,8066,0.7960575254153236,0.5384653948295198,0.9178571428571428,0.6958879349299594,0.0,0.7504492362982929,0.9125925925925926,0.0,0.8257538309441423,0.7896423535444174,0.0,3640,4426,0,119,1.0,0.3333333333333333,0.0,0.0,1.0,0.0,0.0,1.0,0.0,0.0,1.0,0,0,119,292,0.04452054794520548,0.028415300546448086,0.0,0.0,0.04452054794520548,0.0,0.0,1.0,0.0,0.0,0.08524590163934426,0,0,292,8185,0.7990226023213195,0.7047826554864032,0.9178571428571428,0.6958879349299594,1.0,0.7504492362982929,0.9125925925925926,0.3324022346368715,0.8257538309441423,0.7896423535444174,0.4989517819706499,3640,4426,119,0.029630547979171834,0.32116788321167883,1.0421197539028686
simple_pc1_gm_gate_t254,score_dual,0.05,qrs_visibility__le,0.0524517835345784,72,8477,0.7730329125870001,0.6418364474260688,0.9178571428571428,0.6958879349299594,0.32116788321167883,0.7169527896995708,0.89353060632434,0.3567567567567568,0.8050602409638554,0.7824209323002668,0.3380281690140845,3640,4426,411,8066,0.7960575254153236,0.538431383798137,0.9178571428571428,0.6958879349299594,0.0,0.7502807096339547,0.9125925925925926,0.0,0.8256517978499939,0.7896423535444174,0.0,3640,4426,0,119,1.0,0.3333333333333333,0.0,0.0,1.0,0.0,0.0,1.0,0.0,0.0,1.0,0,0,119,292,0.04452054794520548,0.028415300546448086,0.0,0.0,0.04452054794520548,0.0,0.0,1.0,0.0,0.0,0.08524590163934426,0,0,292,8185,0.7990226023213195,0.7050980504648038,0.9178571428571428,0.6958879349299594,1.0,0.7502807096339547,0.9125925925925926,0.3333333333333333,0.8256517978499939,0.7896423535444174,0.5,3640,4426,119,0.029506570790974462,0.32116788321167883,1.0421197539028686
simple_pc1_gm_gate_t254,score_all_max,0.03,pc1__le,-0.7734152380448813,79,8477,0.7730329125870001,0.6410620311829098,0.9178571428571428,0.6958879349299594,0.32116788321167883,0.7180313776058457,0.89353060632434,0.35013262599469497,0.8057397805378029,0.7824209323002668,0.3350253807106599,3640,4426,411,8066,0.7960575254153236,0.5386696376766493,0.9178571428571428,0.6958879349299594,0.0,0.7514619883040936,0.9125925925925926,0.0,0.8263665594855305,0.7896423535444174,0.0,3640,4426,0,119,1.0,0.3333333333333333,0.0,0.0,1.0,0.0,0.0,1.0,0.0,0.0,1.0,0,0,119,292,0.04452054794520548,0.028415300546448086,0.0,0.0,0.04452054794520548,0.0,0.0,1.0,0.0,0.0,0.08524590163934426,0,0,292,8185,0.7990226023213195,0.7029208454061179,0.9178571428571428,0.6958879349299594,1.0,0.7514619883040936,0.9125925925925926,0.3269230769230769,0.8263665594855305,0.7896423535444174,0.4927536231884058,3640,4426,119,0.030374411108356064,0.32116788321167883,1.0421197539028686
simple_pc1_gm_gate_t254,score_all_max,0.03,pc2__ge,10.616705266871826,79,8477,0.7730329125870001,0.6410620311829098,0.9178571428571428,0.6958879349299594,0.32116788321167883,0.7180313776058457,0.89353060632434,0.35013262599469497,0.8057397805378029,0.7824209323002668,0.3350253807106599,3640,4426,411,8066,0.7960575254153236,0.5386696376766493,0.9178571428571428,0.6958879349299594,0.0,0.7514619883040936,0.9125925925925926,0.0,0.8263665594855305,0.7896423535444174,0.0,3640,4426,0,119,1.0,0.3333333333333333,0.0,0.0,1.0,0.0,0.0,1.0,0.0,0.0,1.0,0,0,119,292,0.04452054794520548,0.028415300546448086,0.0,0.0,0.04452054794520548,0.0,0.0,1.0,0.0,0.0,0.08524590163934426,0,0,292,8185,0.7990226023213195,0.7029208454061179,0.9178571428571428,0.6958879349299594,1.0,0.7514619883040936,0.9125925925925926,0.3269230769230769,0.8263665594855305,0.7896423535444174,0.4927536231884058,3640,4426,119,0.030374411108356064,0.32116788321167883,1.0421197539028686
simple_pc1_gm_gate_t254,score_all_max,0.03,qrs_visibility__le,0.0524517835345784,78,8477,0.7730329125870001,0.6411715485266443,0.9178571428571428,0.6958879349299594,0.32116788321167883,0.7178770949720671,0.89353060632434,0.35106382978723405,0.8056426332288401,0.7824209323002668,0.3354510800508259,3640,4426,411,8066,0.7960575254153236,0.5386355761557109,0.9178571428571428,0.6958879349299594,0.0,0.7512930065212503,0.9125925925925926,0.0,0.8262643749227154,0.7896423535444174,0.0,3640,4426,0,119,1.0,0.3333333333333333,0.0,0.0,1.0,0.0,0.0,1.0,0.0,0.0,1.0,0,0,119,292,0.04452054794520548,0.028415300546448086,0.0,0.0,0.04452054794520548,0.0,0.0,1.0,0.0,0.0,0.08524590163934426,0,0,292,8185,0.7990226023213195,0.703227554025697,0.9178571428571428,0.6958879349299594,1.0,0.7512930065212503,0.9125925925925926,0.3278236914600551,0.8262643749227154,0.7896423535444174,0.49377593360995853,3640,4426,119,0.030250433920158692,0.32116788321167883,1.0421197539028686
simple_pc1_gm_gate_t254,score_all_max,0.05,pc1__le,-0.7734152380448813,73,8477,0.7730329125870001,0.6417246960299479,0.9178571428571428,0.6958879349299594,0.32116788321167883,0.7171066752522001,0.89353060632434,0.3557951482479784,0.8051572478611881,0.7824209323002668,0.3375959079283887,3640,4426,411,8066,0.7960575254153236,0.5384653948295198,0.9178571428571428,0.6958879349299594,0.0,0.7504492362982929,0.9125925925925926,0.0,0.8257538309441423,0.7896423535444174,0.0,3640,4426,0,119,1.0,0.3333333333333333,0.0,0.0,1.0,0.0,0.0,1.0,0.0,0.0,1.0,0,0,119,292,0.04452054794520548,0.028415300546448086,0.0,0.0,0.04452054794520548,0.0,0.0,1.0,0.0,0.0,0.08524590163934426,0,0,292,8185,0.7990226023213195,0.7047826554864032,0.9178571428571428,0.6958879349299594,1.0,0.7504492362982929,0.9125925925925926,0.3324022346368715,0.8257538309441423,0.7896423535444174,0.4989517819706499,3640,4426,119,0.029630547979171834,0.32116788321167883,1.0421197539028686
simple_pc1_gm_gate_t254,score_all_max,0.05,pc2__ge,10.616705266871826,73,8477,0.7730329125870001,0.6417246960299479,0.9178571428571428,0.6958879349299594,0.32116788321167883,0.7171066752522001,0.89353060632434,0.3557951482479784,0.8051572478611881,0.7824209323002668,0.3375959079283887,3640,4426,411,8066,0.7960575254153236,0.5384653948295198,0.9178571428571428,0.6958879349299594,0.0,0.7504492362982929,0.9125925925925926,0.0,0.8257538309441423,0.7896423535444174,0.0,3640,4426,0,119,1.0,0.3333333333333333,0.0,0.0,1.0,0.0,0.0,1.0,0.0,0.0,1.0,0,0,119,292,0.04452054794520548,0.028415300546448086,0.0,0.0,0.04452054794520548,0.0,0.0,1.0,0.0,0.0,0.08524590163934426,0,0,292,8185,0.7990226023213195,0.7047826554864032,0.9178571428571428,0.6958879349299594,1.0,0.7504492362982929,0.9125925925925926,0.3324022346368715,0.8257538309441423,0.7896423535444174,0.4989517819706499,3640,4426,119,0.029630547979171834,0.32116788321167883,1.0421197539028686
simple_pc1_gm_gate_t254,score_all_max,0.05,qrs_visibility__le,0.0524517835345784,72,8477,0.7730329125870001,0.6418364474260688,0.9178571428571428,0.6958879349299594,0.32116788321167883,0.7169527896995708,0.89353060632434,0.3567567567567568,0.8050602409638554,0.7824209323002668,0.3380281690140845,3640,4426,411,8066,0.7960575254153236,0.538431383798137,0.9178571428571428,0.6958879349299594,0.0,0.7502807096339547,0.9125925925925926,0.0,0.8256517978499939,0.7896423535444174,0.0,3640,4426,0,119,1.0,0.3333333333333333,0.0,0.0,1.0,0.0,0.0,1.0,0.0,0.0,1.0,0,0,119,292,0.04452054794520548,0.028415300546448086,0.0,0.0,0.04452054794520548,0.0,0.0,1.0,0.0,0.0,0.08524590163934426,0,0,292,8185,0.7990226023213195,0.7050980504648038,0.9178571428571428,0.6958879349299594,1.0,0.7502807096339547,0.9125925925925926,0.3333333333333333,0.8256517978499939,0.7896423535444174,0.5,3640,4426,119,0.029506570790974462,0.32116788321167883,1.0421197539028686
simple_pc1_gm_gate_t254,score_core,0.03,pc1__le,-0.7734152380448813,79,8477,0.7730329125870001,0.6410620311829098,0.9178571428571428,0.6958879349299594,0.32116788321167883,0.7180313776058457,0.89353060632434,0.35013262599469497,0.8057397805378029,0.7824209323002668,0.3350253807106599,3640,4426,411,8066,0.7960575254153236,0.5386696376766493,0.9178571428571428,0.6958879349299594,0.0,0.7514619883040936,0.9125925925925926,0.0,0.8263665594855305,0.7896423535444174,0.0,3640,4426,0,119,1.0,0.3333333333333333,0.0,0.0,1.0,0.0,0.0,1.0,0.0,0.0,1.0,0,0,119,292,0.04452054794520548,0.028415300546448086,0.0,0.0,0.04452054794520548,0.0,0.0,1.0,0.0,0.0,0.08524590163934426,0,0,292,8185,0.7990226023213195,0.7029208454061179,0.9178571428571428,0.6958879349299594,1.0,0.7514619883040936,0.9125925925925926,0.3269230769230769,0.8263665594855305,0.7896423535444174,0.4927536231884058,3640,4426,119,0.030374411108356064,0.32116788321167883,1.0421197539028686
simple_pc1_gm_gate_t254,score_core,0.03,pc2__ge,10.616705266871826,79,8477,0.7730329125870001,0.6410620311829098,0.9178571428571428,0.6958879349299594,0.32116788321167883,0.7180313776058457,0.89353060632434,0.35013262599469497,0.8057397805378029,0.7824209323002668,0.3350253807106599,3640,4426,411,8066,0.7960575254153236,0.5386696376766493,0.9178571428571428,0.6958879349299594,0.0,0.7514619883040936,0.9125925925925926,0.0,0.8263665594855305,0.7896423535444174,0.0,3640,4426,0,119,1.0,0.3333333333333333,0.0,0.0,1.0,0.0,0.0,1.0,0.0,0.0,1.0,0,0,119,292,0.04452054794520548,0.028415300546448086,0.0,0.0,0.04452054794520548,0.0,0.0,1.0,0.0,0.0,0.08524590163934426,0,0,292,8185,0.7990226023213195,0.7029208454061179,0.9178571428571428,0.6958879349299594,1.0,0.7514619883040936,0.9125925925925926,0.3269230769230769,0.8263665594855305,0.7896423535444174,0.4927536231884058,3640,4426,119,0.030374411108356064,0.32116788321167883,1.0421197539028686
simple_pc1_gm_gate_t254,score_core,0.03,qrs_visibility__le,0.0524517835345784,78,8477,0.7730329125870001,0.6411715485266443,0.9178571428571428,0.6958879349299594,0.32116788321167883,0.7178770949720671,0.89353060632434,0.35106382978723405,0.8056426332288401,0.7824209323002668,0.3354510800508259,3640,4426,411,8066,0.7960575254153236,0.5386355761557109,0.9178571428571428,0.6958879349299594,0.0,0.7512930065212503,0.9125925925925926,0.0,0.8262643749227154,0.7896423535444174,0.0,3640,4426,0,119,1.0,0.3333333333333333,0.0,0.0,1.0,0.0,0.0,1.0,0.0,0.0,1.0,0,0,119,292,0.04452054794520548,0.028415300546448086,0.0,0.0,0.04452054794520548,0.0,0.0,1.0,0.0,0.0,0.08524590163934426,0,0,292,8185,0.7990226023213195,0.703227554025697,0.9178571428571428,0.6958879349299594,1.0,0.7512930065212503,0.9125925925925926,0.3278236914600551,0.8262643749227154,0.7896423535444174,0.49377593360995853,3640,4426,119,0.030250433920158692,0.32116788321167883,1.0421197539028686
simple_pc1_gm_gate_t254,score_core,0.05,pc1__le,-0.7734152380448813,73,8477,0.7730329125870001,0.6417246960299479,0.9178571428571428,0.6958879349299594,0.32116788321167883,0.7171066752522001,0.89353060632434,0.3557951482479784,0.8051572478611881,0.7824209323002668,0.3375959079283887,3640,4426,411,8066,0.7960575254153236,0.5384653948295198,0.9178571428571428,0.6958879349299594,0.0,0.7504492362982929,0.9125925925925926,0.0,0.8257538309441423,0.7896423535444174,0.0,3640,4426,0,119,1.0,0.3333333333333333,0.0,0.0,1.0,0.0,0.0,1.0,0.0,0.0,1.0,0,0,119,292,0.04452054794520548,0.028415300546448086,0.0,0.0,0.04452054794520548,0.0,0.0,1.0,0.0,0.0,0.08524590163934426,0,0,292,8185,0.7990226023213195,0.7047826554864032,0.9178571428571428,0.6958879349299594,1.0,0.7504492362982929,0.9125925925925926,0.3324022346368715,0.8257538309441423,0.7896423535444174,0.4989517819706499,3640,4426,119,0.029630547979171834,0.32116788321167883,1.0421197539028686
simple_pc1_gm_gate_t254,score_core,0.05,pc2__ge,10.616705266871826,73,8477,0.7730329125870001,0.6417246960299479,0.9178571428571428,0.6958879349299594,0.32116788321167883,0.7171066752522001,0.89353060632434,0.3557951482479784,0.8051572478611881,0.7824209323002668,0.3375959079283887,3640,4426,411,8066,0.7960575254153236,0.5384653948295198,0.9178571428571428,0.6958879349299594,0.0,0.7504492362982929,0.9125925925925926,0.0,0.8257538309441423,0.7896423535444174,0.0,3640,4426,0,119,1.0,0.3333333333333333,0.0,0.0,1.0,0.0,0.0,1.0,0.0,0.0,1.0,0,0,119,292,0.04452054794520548,0.028415300546448086,0.0,0.0,0.04452054794520548,0.0,0.0,1.0,0.0,0.0,0.08524590163934426,0,0,292,8185,0.7990226023213195,0.7047826554864032,0.9178571428571428,0.6958879349299594,1.0,0.7504492362982929,0.9125925925925926,0.3324022346368715,0.8257538309441423,0.7896423535444174,0.4989517819706499,3640,4426,119,0.029630547979171834,0.32116788321167883,1.0421197539028686
simple_pc1_gm_gate_t254,score_core,0.05,qrs_visibility__le,0.0524517835345784,72,8477,0.7730329125870001,0.6418364474260688,0.9178571428571428,0.6958879349299594,0.32116788321167883,0.7169527896995708,0.89353060632434,0.3567567567567568,0.8050602409638554,0.7824209323002668,0.3380281690140845,3640,4426,411,8066,0.7960575254153236,0.538431383798137,0.9178571428571428,0.6958879349299594,0.0,0.7502807096339547,0.9125925925925926,0.0,0.8256517978499939,0.7896423535444174,0.0,3640,4426,0,119,1.0,0.3333333333333333,0.0,0.0,1.0,0.0,0.0,1.0,0.0,0.0,1.0,0,0,119,292,0.04452054794520548,0.028415300546448086,0.0,0.0,0.04452054794520548,0.0,0.0,1.0,0.0,0.0,0.08524590163934426,0,0,292,8185,0.7990226023213195,0.7050980504648038,0.9178571428571428,0.6958879349299594,1.0,0.7502807096339547,0.9125925925925926,0.3333333333333333,0.8256517978499939,0.7896423535444174,0.5,3640,4426,119,0.029506570790974462,0.32116788321167883,1.0421197539028686
simple_pc1_gm_gate_t254,score_outlier,0.03,pc1__le,-0.7734152380448813,79,8477,0.7730329125870001,0.6410620311829098,0.9178571428571428,0.6958879349299594,0.32116788321167883,0.7180313776058457,0.89353060632434,0.35013262599469497,0.8057397805378029,0.7824209323002668,0.3350253807106599,3640,4426,411,8066,0.7960575254153236,0.5386696376766493,0.9178571428571428,0.6958879349299594,0.0,0.7514619883040936,0.9125925925925926,0.0,0.8263665594855305,0.7896423535444174,0.0,3640,4426,0,119,1.0,0.3333333333333333,0.0,0.0,1.0,0.0,0.0,1.0,0.0,0.0,1.0,0,0,119,292,0.04452054794520548,0.028415300546448086,0.0,0.0,0.04452054794520548,0.0,0.0,1.0,0.0,0.0,0.08524590163934426,0,0,292,8185,0.7990226023213195,0.7029208454061179,0.9178571428571428,0.6958879349299594,1.0,0.7514619883040936,0.9125925925925926,0.3269230769230769,0.8263665594855305,0.7896423535444174,0.4927536231884058,3640,4426,119,0.030374411108356064,0.32116788321167883,1.0421197539028686
simple_pc1_gm_gate_t254,score_outlier,0.03,pc2__ge,10.616705266871826,79,8477,0.7730329125870001,0.6410620311829098,0.9178571428571428,0.6958879349299594,0.32116788321167883,0.7180313776058457,0.89353060632434,0.35013262599469497,0.8057397805378029,0.7824209323002668,0.3350253807106599,3640,4426,411,8066,0.7960575254153236,0.5386696376766493,0.9178571428571428,0.6958879349299594,0.0,0.7514619883040936,0.9125925925925926,0.0,0.8263665594855305,0.7896423535444174,0.0,3640,4426,0,119,1.0,0.3333333333333333,0.0,0.0,1.0,0.0,0.0,1.0,0.0,0.0,1.0,0,0,119,292,0.04452054794520548,0.028415300546448086,0.0,0.0,0.04452054794520548,0.0,0.0,1.0,0.0,0.0,0.08524590163934426,0,0,292,8185,0.7990226023213195,0.7029208454061179,0.9178571428571428,0.6958879349299594,1.0,0.7514619883040936,0.9125925925925926,0.3269230769230769,0.8263665594855305,0.7896423535444174,0.4927536231884058,3640,4426,119,0.030374411108356064,0.32116788321167883,1.0421197539028686
simple_pc1_gm_gate_t254,score_outlier,0.03,qrs_visibility__le,0.0524517835345784,78,8477,0.7730329125870001,0.6411715485266443,0.9178571428571428,0.6958879349299594,0.32116788321167883,0.7178770949720671,0.89353060632434,0.35106382978723405,0.8056426332288401,0.7824209323002668,0.3354510800508259,3640,4426,411,8066,0.7960575254153236,0.5386355761557109,0.9178571428571428,0.6958879349299594,0.0,0.7512930065212503,0.9125925925925926,0.0,0.8262643749227154,0.7896423535444174,0.0,3640,4426,0,119,1.0,0.3333333333333333,0.0,0.0,1.0,0.0,0.0,1.0,0.0,0.0,1.0,0,0,119,292,0.04452054794520548,0.028415300546448086,0.0,0.0,0.04452054794520548,0.0,0.0,1.0,0.0,0.0,0.08524590163934426,0,0,292,8185,0.7990226023213195,0.703227554025697,0.9178571428571428,0.6958879349299594,1.0,0.7512930065212503,0.9125925925925926,0.3278236914600551,0.8262643749227154,0.7896423535444174,0.49377593360995853,3640,4426,119,0.030250433920158692,0.32116788321167883,1.0421197539028686
simple_pc1_gm_gate_t254,score_outlier,0.05,pc1__le,-0.7734152380448813,73,8477,0.7730329125870001,0.6417246960299479,0.9178571428571428,0.6958879349299594,0.32116788321167883,0.7171066752522001,0.89353060632434,0.3557951482479784,0.8051572478611881,0.7824209323002668,0.3375959079283887,3640,4426,411,8066,0.7960575254153236,0.5384653948295198,0.9178571428571428,0.6958879349299594,0.0,0.7504492362982929,0.9125925925925926,0.0,0.8257538309441423,0.7896423535444174,0.0,3640,4426,0,119,1.0,0.3333333333333333,0.0,0.0,1.0,0.0,0.0,1.0,0.0,0.0,1.0,0,0,119,292,0.04452054794520548,0.028415300546448086,0.0,0.0,0.04452054794520548,0.0,0.0,1.0,0.0,0.0,0.08524590163934426,0,0,292,8185,0.7990226023213195,0.7047826554864032,0.9178571428571428,0.6958879349299594,1.0,0.7504492362982929,0.9125925925925926,0.3324022346368715,0.8257538309441423,0.7896423535444174,0.4989517819706499,3640,4426,119,0.029630547979171834,0.32116788321167883,1.0421197539028686
simple_pc1_gm_gate_t254,score_outlier,0.05,pc2__ge,10.616705266871826,73,8477,0.7730329125870001,0.6417246960299479,0.9178571428571428,0.6958879349299594,0.32116788321167883,0.7171066752522001,0.89353060632434,0.3557951482479784,0.8051572478611881,0.7824209323002668,0.3375959079283887,3640,4426,411,8066,0.7960575254153236,0.5384653948295198,0.9178571428571428,0.6958879349299594,0.0,0.7504492362982929,0.9125925925925926,0.0,0.8257538309441423,0.7896423535444174,0.0,3640,4426,0,119,1.0,0.3333333333333333,0.0,0.0,1.0,0.0,0.0,1.0,0.0,0.0,1.0,0,0,119,292,0.04452054794520548,0.028415300546448086,0.0,0.0,0.04452054794520548,0.0,0.0,1.0,0.0,0.0,0.08524590163934426,0,0,292,8185,0.7990226023213195,0.7047826554864032,0.9178571428571428,0.6958879349299594,1.0,0.7504492362982929,0.9125925925925926,0.3324022346368715,0.8257538309441423,0.7896423535444174,0.4989517819706499,3640,4426,119,0.029630547979171834,0.32116788321167883,1.0421197539028686
simple_pc1_gm_gate_t254,score_outlier,0.05,qrs_visibility__le,0.0524517835345784,72,8477,0.7730329125870001,0.6418364474260688,0.9178571428571428,0.6958879349299594,0.32116788321167883,0.7169527896995708,0.89353060632434,0.3567567567567568,0.8050602409638554,0.7824209323002668,0.3380281690140845,3640,4426,411,8066,0.7960575254153236,0.538431383798137,0.9178571428571428,0.6958879349299594,0.0,0.7502807096339547,0.9125925925925926,0.0,0.8256517978499939,0.7896423535444174,0.0,3640,4426,0,119,1.0,0.3333333333333333,0.0,0.0,1.0,0.0,0.0,1.0,0.0,0.0,1.0,0,0,119,292,0.04452054794520548,0.028415300546448086,0.0,0.0,0.04452054794520548,0.0,0.0,1.0,0.0,0.0,0.08524590163934426,0,0,292,8185,0.7990226023213195,0.7050980504648038,0.9178571428571428,0.6958879349299594,1.0,0.7502807096339547,0.9125925925925926,0.3333333333333333,0.8256517978499939,0.7896423535444174,0.5,3640,4426,119,0.029506570790974462,0.32116788321167883,1.0421197539028686
simple_pc1_gm_gate_t254,score_dual,0.01,pc2__ge,-1.0634046292314407,121,8477,0.7716173174472101,0.6364927231756844,0.9173076923076923,0.6934026208766381,0.3236009732360097,0.7224145391605366,0.8931897555296857,0.31742243436754175,0.8082788671023965,0.7807173747138133,0.3204819277108434,3640,4426,411,8066,0.7944458219687578,0.5389602053915276,0.9173076923076923,0.6934026208766381,0.0,0.7561141304347826,0.9123067776456599,0.0,0.8289473684210527,0.7879332477535301,0.0,3640,4426,0,119,1.0,0.3333333333333333,0.0,0.0,1.0,0.0,0.0,1.0,0.0,0.0,1.0,0,0,119,292,0.04794520547945205,0.030501089324618733,0.0,0.0,0.04794520547945205,0.0,0.0,1.0,0.0,0.0,0.0915032679738562,0,0,292,8185,0.7974343310934636,0.6903596964856752,0.9173076923076923,0.6934026208766381,1.0,0.7561141304347826,0.9123067776456599,0.2938271604938272,0.8289473684210527,0.7879332477535301,0.4541984732824427,3640,4426,119,0.035457475824448303,0.3236009732360097,1.042069438901731
simple_pc1_gm_gate_t254,score_all_max,0.01,pc2__ge,-1.0634046292314407,121,8477,0.7716173174472101,0.6364927231756844,0.9173076923076923,0.6934026208766381,0.3236009732360097,0.7224145391605366,0.8931897555296857,0.31742243436754175,0.8082788671023965,0.7807173747138133,0.3204819277108434,3640,4426,411,8066,0.7944458219687578,0.5389602053915276,0.9173076923076923,0.6934026208766381,0.0,0.7561141304347826,0.9123067776456599,0.0,0.8289473684210527,0.7879332477535301,0.0,3640,4426,0,119,1.0,0.3333333333333333,0.0,0.0,1.0,0.0,0.0,1.0,0.0,0.0,1.0,0,0,119,292,0.04794520547945205,0.030501089324618733,0.0,0.0,0.04794520547945205,0.0,0.0,1.0,0.0,0.0,0.0915032679738562,0,0,292,8185,0.7974343310934636,0.6903596964856752,0.9173076923076923,0.6934026208766381,1.0,0.7561141304347826,0.9123067776456599,0.2938271604938272,0.8289473684210527,0.7879332477535301,0.4541984732824427,3640,4426,119,0.035457475824448303,0.3236009732360097,1.042069438901731
simple_pc1_gm_gate_t254,score_core,0.01,pc2__ge,-1.0634046292314407,121,8477,0.7716173174472101,0.6364927231756844,0.9173076923076923,0.6934026208766381,0.3236009732360097,0.7224145391605366,0.8931897555296857,0.31742243436754175,0.8082788671023965,0.7807173747138133,0.3204819277108434,3640,4426,411,8066,0.7944458219687578,0.5389602053915276,0.9173076923076923,0.6934026208766381,0.0,0.7561141304347826,0.9123067776456599,0.0,0.8289473684210527,0.7879332477535301,0.0,3640,4426,0,119,1.0,0.3333333333333333,0.0,0.0,1.0,0.0,0.0,1.0,0.0,0.0,1.0,0,0,119,292,0.04794520547945205,0.030501089324618733,0.0,0.0,0.04794520547945205,0.0,0.0,1.0,0.0,0.0,0.0915032679738562,0,0,292,8185,0.7974343310934636,0.6903596964856752,0.9173076923076923,0.6934026208766381,1.0,0.7561141304347826,0.9123067776456599,0.2938271604938272,0.8289473684210527,0.7879332477535301,0.4541984732824427,3640,4426,119,0.035457475824448303,0.3236009732360097,1.042069438901731
simple_pc1_gm_gate_t254,score_outlier,0.01,pc2__ge,-1.0634046292314407,121,8477,0.7716173174472101,0.6364927231756844,0.9173076923076923,0.6934026208766381,0.3236009732360097,0.7224145391605366,0.8931897555296857,0.31742243436754175,0.8082788671023965,0.7807173747138133,0.3204819277108434,3640,4426,411,8066,0.7944458219687578,0.5389602053915276,0.9173076923076923,0.6934026208766381,0.0,0.7561141304347826,0.9123067776456599,0.0,0.8289473684210527,0.7879332477535301,0.0,3640,4426,0,119,1.0,0.3333333333333333,0.0,0.0,1.0,0.0,0.0,1.0,0.0,0.0,1.0,0,0,119,292,0.04794520547945205,0.030501089324618733,0.0,0.0,0.04794520547945205,0.0,0.0,1.0,0.0,0.0,0.0915032679738562,0,0,292,8185,0.7974343310934636,0.6903596964856752,0.9173076923076923,0.6934026208766381,1.0,0.7561141304347826,0.9123067776456599,0.2938271604938272,0.8289473684210527,0.7879332477535301,0.4541984732824427,3640,4426,119,0.035457475824448303,0.3236009732360097,1.042069438901731
simple_pc1_gm_gate_t254,score_dual,0.02,pc1__le,-0.7734152380448813,88,8477,0.772914946325351,0.6400087405047837,0.9178571428571428,0.6956619972887483,0.32116788321167883,0.7192680301399355,0.8934997098084736,0.34196891191709844,0.8065178032589017,0.7822662601626016,0.3312421580928482,3640,4426,411,8066,0.7959335482271263,0.5388907087520606,0.9178571428571428,0.6956619972887483,0.0,0.7528165840468679,0.9125666864256076,0.0,0.8271849467690022,0.7894871794871795,0.0,3640,4426,0,119,1.0,0.3333333333333333,0.0,0.0,1.0,0.0,0.0,1.0,0.0,0.0,1.0,0,0,119,292,0.04452054794520548,0.028415300546448086,0.0,0.0,0.04452054794520548,0.0,0.0,1.0,0.0,0.0,0.08524590163934426,0,0,292,8185,0.7989004276114844,0.7001373212181853,0.9178571428571428,0.6956619972887483,1.0,0.7528165840468679,0.9125666864256076,0.3190348525469169,0.8271849467690022,0.7894871794871795,0.483739837398374,3640,4426,119,0.03149020580213241,0.32116788321167883,1.0420017876412193
simple_pc1_gm_gate_t254,score_dual,0.02,pc2__ge,10.616705266871826,88,8477,0.772914946325351,0.6400087405047837,0.9178571428571428,0.6956619972887483,0.32116788321167883,0.7192680301399355,0.8934997098084736,0.34196891191709844,0.8065178032589017,0.7822662601626016,0.3312421580928482,3640,4426,411,8066,0.7959335482271263,0.5388907087520606,0.9178571428571428,0.6956619972887483,0.0,0.7528165840468679,0.9125666864256076,0.0,0.8271849467690022,0.7894871794871795,0.0,3640,4426,0,119,1.0,0.3333333333333333,0.0,0.0,1.0,0.0,0.0,1.0,0.0,0.0,1.0,0,0,119,292,0.04452054794520548,0.028415300546448086,0.0,0.0,0.04452054794520548,0.0,0.0,1.0,0.0,0.0,0.08524590163934426,0,0,292,8185,0.7989004276114844,0.7001373212181853,0.9178571428571428,0.6956619972887483,1.0,0.7528165840468679,0.9125666864256076,0.3190348525469169,0.8271849467690022,0.7894871794871795,0.483739837398374,3640,4426,119,0.03149020580213241,0.32116788321167883,1.0420017876412193
simple_pc1_gm_gate_t254,score_dual,0.02,qrs_visibility__le,0.0524517835345784,87,8477,0.772914946325351,0.6401150066265343,0.9178571428571428,0.6956619972887483,0.32116788321167883,0.719113215669393,0.8934997098084736,0.34285714285714286,0.8064204682597151,0.7822662601626016,0.3316582914572864,3640,4426,411,8066,0.7959335482271263,0.5388565797366391,0.9178571428571428,0.6956619972887483,0.0,0.7526469925658932,0.9125666864256076,0.0,0.8270825597227379,0.7894871794871795,0.0,3640,4426,0,119,1.0,0.3333333333333333,0.0,0.0,1.0,0.0,0.0,1.0,0.0,0.0,1.0,0,0,119,292,0.04452054794520548,0.028415300546448086,0.0,0.0,0.04452054794520548,0.0,0.0,1.0,0.0,0.0,0.08524590163934426,0,0,292,8185,0.7989004276114844,0.7004315967088047,0.9178571428571428,0.6956619972887483,1.0,0.7526469925658932,0.9125666864256076,0.31989247311827956,0.8270825597227379,0.7894871794871795,0.4847250509164969,3640,4426,119,0.03136622861393504,0.32116788321167883,1.0420017876412193
simple_pc1_gm_gate_t254,score_dual,0.03,pc1__le,0.15713262094765446,80,8477,0.772914946325351,0.6408689337188928,0.9178571428571428,0.6956619972887483,0.32116788321167883,0.7180313776058457,0.8934997098084736,0.3492063492063492,0.8057397805378029,0.7822662601626016,0.33460076045627374,3640,4426,411,8066,0.7959335482271263,0.5386179129909033,0.9178571428571428,0.6956619972887483,0.0,0.7514619883040936,0.9125666864256076,0.0,0.8263665594855305,0.7894871794871795,0.0,3640,4426,0,119,1.0,0.3333333333333333,0.0,0.0,1.0,0.0,0.0,1.0,0.0,0.0,1.0,0,0,119,292,0.04452054794520548,0.028415300546448086,0.0,0.0,0.04452054794520548,0.0,0.0,1.0,0.0,0.0,0.08524590163934426,0,0,292,8185,0.7989004276114844,0.702529758720931,0.9178571428571428,0.6956619972887483,1.0,0.7514619883040936,0.9125666864256076,0.32602739726027397,0.8263665594855305,0.7894871794871795,0.49173553719008267,3640,4426,119,0.030498388296553436,0.32116788321167883,1.0420017876412193
simple_pc1_gm_gate_t254,score_dual,0.03,pc2__ge,5.370042063114319,80,8477,0.772914946325351,0.6408689337188928,0.9178571428571428,0.6956619972887483,0.32116788321167883,0.7180313776058457,0.8934997098084736,0.3492063492063492,0.8057397805378029,0.7822662601626016,0.33460076045627374,3640,4426,411,8066,0.7959335482271263,0.5386179129909033,0.9178571428571428,0.6956619972887483,0.0,0.7514619883040936,0.9125666864256076,0.0,0.8263665594855305,0.7894871794871795,0.0,3640,4426,0,119,1.0,0.3333333333333333,0.0,0.0,1.0,0.0,0.0,1.0,0.0,0.0,1.0,0,0,119,292,0.04452054794520548,0.028415300546448086,0.0,0.0,0.04452054794520548,0.0,0.0,1.0,0.0,0.0,0.08524590163934426,0,0,292,8185,0.7989004276114844,0.702529758720931,0.9178571428571428,0.6956619972887483,1.0,0.7514619883040936,0.9125666864256076,0.32602739726027397,0.8263665594855305,0.7894871794871795,0.49173553719008267,3640,4426,119,0.030498388296553436,0.32116788321167883,1.0420017876412193
simple_pc1_gm_gate_t254,score_dual,0.03,pc3__le,2.1506591515994145,80,8477,0.772914946325351,0.6408689337188928,0.9178571428571428,0.6956619972887483,0.32116788321167883,0.7180313776058457,0.8934997098084736,0.3492063492063492,0.8057397805378029,0.7822662601626016,0.33460076045627374,3640,4426,411,8066,0.7959335482271263,0.5386179129909033,0.9178571428571428,0.6956619972887483,0.0,0.7514619883040936,0.9125666864256076,0.0,0.8263665594855305,0.7894871794871795,0.0,3640,4426,0,119,1.0,0.3333333333333333,0.0,0.0,1.0,0.0,0.0,1.0,0.0,0.0,1.0,0,0,119,292,0.04452054794520548,0.028415300546448086,0.0,0.0,0.04452054794520548,0.0,0.0,1.0,0.0,0.0,0.08524590163934426,0,0,292,8185,0.7989004276114844,0.702529758720931,0.9178571428571428,0.6956619972887483,1.0,0.7514619883040936,0.9125666864256076,0.32602739726027397,0.8263665594855305,0.7894871794871795,0.49173553719008267,3640,4426,119,0.030498388296553436,0.32116788321167883,1.0420017876412193
simple_pc1_gm_gate_t254,score_dual,0.05,pc1__le,0.15713262094765446,74,8477,0.772914946325351,0.641529419660548,0.9178571428571428,0.6956619972887483,0.32116788321167883,0.7171066752522001,0.8934997098084736,0.3548387096774194,0.8051572478611881,0.7822662601626016,0.3371647509578544,3640,4426,411,8066,0.7959335482271263,0.538413670143774,0.9178571428571428,0.6956619972887483,0.0,0.7504492362982929,0.9125666864256076,0.0,0.8257538309441423,0.7894871794871795,0.0,3640,4426,0,119,1.0,0.3333333333333333,0.0,0.0,1.0,0.0,0.0,1.0,0.0,0.0,1.0,0,0,119,292,0.04452054794520548,0.028415300546448086,0.0,0.0,0.04452054794520548,0.0,0.0,1.0,0.0,0.0,0.08524590163934426,0,0,292,8185,0.7989004276114844,0.7043829867407055,0.9178571428571428,0.6956619972887483,1.0,0.7504492362982929,0.9125666864256076,0.33147632311977715,0.8257538309441423,0.7894871794871795,0.497907949790795,3640,4426,119,0.029754525167369206,0.32116788321167883,1.0420017876412193
simple_pc1_gm_gate_t254,score_dual,0.05,pc2__ge,5.370042063114319,74,8477,0.772914946325351,0.641529419660548,0.9178571428571428,0.6956619972887483,0.32116788321167883,0.7171066752522001,0.8934997098084736,0.3548387096774194,0.8051572478611881,0.7822662601626016,0.3371647509578544,3640,4426,411,8066,0.7959335482271263,0.538413670143774,0.9178571428571428,0.6956619972887483,0.0,0.7504492362982929,0.9125666864256076,0.0,0.8257538309441423,0.7894871794871795,0.0,3640,4426,0,119,1.0,0.3333333333333333,0.0,0.0,1.0,0.0,0.0,1.0,0.0,0.0,1.0,0,0,119,292,0.04452054794520548,0.028415300546448086,0.0,0.0,0.04452054794520548,0.0,0.0,1.0,0.0,0.0,0.08524590163934426,0,0,292,8185,0.7989004276114844,0.7043829867407055,0.9178571428571428,0.6956619972887483,1.0,0.7504492362982929,0.9125666864256076,0.33147632311977715,0.8257538309441423,0.7894871794871795,0.497907949790795,3640,4426,119,0.029754525167369206,0.32116788321167883,1.0420017876412193
simple_pc1_gm_gate_t254,score_dual,0.05,pc3__le,2.1506591515994145,74,8477,0.772914946325351,0.641529419660548,0.9178571428571428,0.6956619972887483,0.32116788321167883,0.7171066752522001,0.8934997098084736,0.3548387096774194,0.8051572478611881,0.7822662601626016,0.3371647509578544,3640,4426,411,8066,0.7959335482271263,0.538413670143774,0.9178571428571428,0.6956619972887483,0.0,0.7504492362982929,0.9125666864256076,0.0,0.8257538309441423,0.7894871794871795,0.0,3640,4426,0,119,1.0,0.3333333333333333,0.0,0.0,1.0,0.0,0.0,1.0,0.0,0.0,1.0,0,0,119,292,0.04452054794520548,0.028415300546448086,0.0,0.0,0.04452054794520548,0.0,0.0,1.0,0.0,0.0,0.08524590163934426,0,0,292,8185,0.7989004276114844,0.7043829867407055,0.9178571428571428,0.6956619972887483,1.0,0.7504492362982929,0.9125666864256076,0.33147632311977715,0.8257538309441423,0.7894871794871795,0.497907949790795,3640,4426,119,0.029754525167369206,0.32116788321167883,1.0420017876412193
simple_pc1_gm_gate_t254,score_all_max,0.02,pc1__le,-0.7734152380448813,88,8477,0.772914946325351,0.6400087405047837,0.9178571428571428,0.6956619972887483,0.32116788321167883,0.7192680301399355,0.8934997098084736,0.34196891191709844,0.8065178032589017,0.7822662601626016,0.3312421580928482,3640,4426,411,8066,0.7959335482271263,0.5388907087520606,0.9178571428571428,0.6956619972887483,0.0,0.7528165840468679,0.9125666864256076,0.0,0.8271849467690022,0.7894871794871795,0.0,3640,4426,0,119,1.0,0.3333333333333333,0.0,0.0,1.0,0.0,0.0,1.0,0.0,0.0,1.0,0,0,119,292,0.04452054794520548,0.028415300546448086,0.0,0.0,0.04452054794520548,0.0,0.0,1.0,0.0,0.0,0.08524590163934426,0,0,292,8185,0.7989004276114844,0.7001373212181853,0.9178571428571428,0.6956619972887483,1.0,0.7528165840468679,0.9125666864256076,0.3190348525469169,0.8271849467690022,0.7894871794871795,0.483739837398374,3640,4426,119,0.03149020580213241,0.32116788321167883,1.0420017876412193
simple_pc1_gm_gate_t254,score_all_max,0.02,pc2__ge,10.616705266871826,88,8477,0.772914946325351,0.6400087405047837,0.9178571428571428,0.6956619972887483,0.32116788321167883,0.7192680301399355,0.8934997098084736,0.34196891191709844,0.8065178032589017,0.7822662601626016,0.3312421580928482,3640,4426,411,8066,0.7959335482271263,0.5388907087520606,0.9178571428571428,0.6956619972887483,0.0,0.7528165840468679,0.9125666864256076,0.0,0.8271849467690022,0.7894871794871795,0.0,3640,4426,0,119,1.0,0.3333333333333333,0.0,0.0,1.0,0.0,0.0,1.0,0.0,0.0,1.0,0,0,119,292,0.04452054794520548,0.028415300546448086,0.0,0.0,0.04452054794520548,0.0,0.0,1.0,0.0,0.0,0.08524590163934426,0,0,292,8185,0.7989004276114844,0.7001373212181853,0.9178571428571428,0.6956619972887483,1.0,0.7528165840468679,0.9125666864256076,0.3190348525469169,0.8271849467690022,0.7894871794871795,0.483739837398374,3640,4426,119,0.03149020580213241,0.32116788321167883,1.0420017876412193
simple_pc1_gm_gate_t254,score_all_max,0.02,qrs_visibility__le,0.0524517835345784,87,8477,0.772914946325351,0.6401150066265343,0.9178571428571428,0.6956619972887483,0.32116788321167883,0.719113215669393,0.8934997098084736,0.34285714285714286,0.8064204682597151,0.7822662601626016,0.3316582914572864,3640,4426,411,8066,0.7959335482271263,0.5388565797366391,0.9178571428571428,0.6956619972887483,0.0,0.7526469925658932,0.9125666864256076,0.0,0.8270825597227379,0.7894871794871795,0.0,3640,4426,0,119,1.0,0.3333333333333333,0.0,0.0,1.0,0.0,0.0,1.0,0.0,0.0,1.0,0,0,119,292,0.04452054794520548,0.028415300546448086,0.0,0.0,0.04452054794520548,0.0,0.0,1.0,0.0,0.0,0.08524590163934426,0,0,292,8185,0.7989004276114844,0.7004315967088047,0.9178571428571428,0.6956619972887483,1.0,0.7526469925658932,0.9125666864256076,0.31989247311827956,0.8270825597227379,0.7894871794871795,0.4847250509164969,3640,4426,119,0.03136622861393504,0.32116788321167883,1.0420017876412193
simple_pc1_gm_gate_t254,score_all_max,0.03,pc1__le,0.15713262094765446,80,8477,0.772914946325351,0.6408689337188928,0.9178571428571428,0.6956619972887483,0.32116788321167883,0.7180313776058457,0.8934997098084736,0.3492063492063492,0.8057397805378029,0.7822662601626016,0.33460076045627374,3640,4426,411,8066,0.7959335482271263,0.5386179129909033,0.9178571428571428,0.6956619972887483,0.0,0.7514619883040936,0.9125666864256076,0.0,0.8263665594855305,0.7894871794871795,0.0,3640,4426,0,119,1.0,0.3333333333333333,0.0,0.0,1.0,0.0,0.0,1.0,0.0,0.0,1.0,0,0,119,292,0.04452054794520548,0.028415300546448086,0.0,0.0,0.04452054794520548,0.0,0.0,1.0,0.0,0.0,0.08524590163934426,0,0,292,8185,0.7989004276114844,0.702529758720931,0.9178571428571428,0.6956619972887483,1.0,0.7514619883040936,0.9125666864256076,0.32602739726027397,0.8263665594855305,0.7894871794871795,0.49173553719008267,3640,4426,119,0.030498388296553436,0.32116788321167883,1.0420017876412193
simple_pc1_gm_gate_t254,score_all_max,0.03,pc2__ge,5.370042063114319,80,8477,0.772914946325351,0.6408689337188928,0.9178571428571428,0.6956619972887483,0.32116788321167883,0.7180313776058457,0.8934997098084736,0.3492063492063492,0.8057397805378029,0.7822662601626016,0.33460076045627374,3640,4426,411,8066,0.7959335482271263,0.5386179129909033,0.9178571428571428,0.6956619972887483,0.0,0.7514619883040936,0.9125666864256076,0.0,0.8263665594855305,0.7894871794871795,0.0,3640,4426,0,119,1.0,0.3333333333333333,0.0,0.0,1.0,0.0,0.0,1.0,0.0,0.0,1.0,0,0,119,292,0.04452054794520548,0.028415300546448086,0.0,0.0,0.04452054794520548,0.0,0.0,1.0,0.0,0.0,0.08524590163934426,0,0,292,8185,0.7989004276114844,0.702529758720931,0.9178571428571428,0.6956619972887483,1.0,0.7514619883040936,0.9125666864256076,0.32602739726027397,0.8263665594855305,0.7894871794871795,0.49173553719008267,3640,4426,119,0.030498388296553436,0.32116788321167883,1.0420017876412193
simple_pc1_gm_gate_t254,score_all_max,0.03,pc3__le,2.1506591515994145,80,8477,0.772914946325351,0.6408689337188928,0.9178571428571428,0.6956619972887483,0.32116788321167883,0.7180313776058457,0.8934997098084736,0.3492063492063492,0.8057397805378029,0.7822662601626016,0.33460076045627374,3640,4426,411,8066,0.7959335482271263,0.5386179129909033,0.9178571428571428,0.6956619972887483,0.0,0.7514619883040936,0.9125666864256076,0.0,0.8263665594855305,0.7894871794871795,0.0,3640,4426,0,119,1.0,0.3333333333333333,0.0,0.0,1.0,0.0,0.0,1.0,0.0,0.0,1.0,0,0,119,292,0.04452054794520548,0.028415300546448086,0.0,0.0,0.04452054794520548,0.0,0.0,1.0,0.0,0.0,0.08524590163934426,0,0,292,8185,0.7989004276114844,0.702529758720931,0.9178571428571428,0.6956619972887483,1.0,0.7514619883040936,0.9125666864256076,0.32602739726027397,0.8263665594855305,0.7894871794871795,0.49173553719008267,3640,4426,119,0.030498388296553436,0.32116788321167883,1.0420017876412193
simple_pc1_gm_gate_t254,score_all_max,0.05,pc1__le,0.15713262094765446,74,8477,0.772914946325351,0.641529419660548,0.9178571428571428,0.6956619972887483,0.32116788321167883,0.7171066752522001,0.8934997098084736,0.3548387096774194,0.8051572478611881,0.7822662601626016,0.3371647509578544,3640,4426,411,8066,0.7959335482271263,0.538413670143774,0.9178571428571428,0.6956619972887483,0.0,0.7504492362982929,0.9125666864256076,0.0,0.8257538309441423,0.7894871794871795,0.0,3640,4426,0,119,1.0,0.3333333333333333,0.0,0.0,1.0,0.0,0.0,1.0,0.0,0.0,1.0,0,0,119,292,0.04452054794520548,0.028415300546448086,0.0,0.0,0.04452054794520548,0.0,0.0,1.0,0.0,0.0,0.08524590163934426,0,0,292,8185,0.7989004276114844,0.7043829867407055,0.9178571428571428,0.6956619972887483,1.0,0.7504492362982929,0.9125666864256076,0.33147632311977715,0.8257538309441423,0.7894871794871795,0.497907949790795,3640,4426,119,0.029754525167369206,0.32116788321167883,1.0420017876412193
simple_pc1_gm_gate_t254,score_all_max,0.05,pc2__ge,5.370042063114319,74,8477,0.772914946325351,0.641529419660548,0.9178571428571428,0.6956619972887483,0.32116788321167883,0.7171066752522001,0.8934997098084736,0.3548387096774194,0.8051572478611881,0.7822662601626016,0.3371647509578544,3640,4426,411,8066,0.7959335482271263,0.538413670143774,0.9178571428571428,0.6956619972887483,0.0,0.7504492362982929,0.9125666864256076,0.0,0.8257538309441423,0.7894871794871795,0.0,3640,4426,0,119,1.0,0.3333333333333333,0.0,0.0,1.0,0.0,0.0,1.0,0.0,0.0,1.0,0,0,119,292,0.04452054794520548,0.028415300546448086,0.0,0.0,0.04452054794520548,0.0,0.0,1.0,0.0,0.0,0.08524590163934426,0,0,292,8185,0.7989004276114844,0.7043829867407055,0.9178571428571428,0.6956619972887483,1.0,0.7504492362982929,0.9125666864256076,0.33147632311977715,0.8257538309441423,0.7894871794871795,0.497907949790795,3640,4426,119,0.029754525167369206,0.32116788321167883,1.0420017876412193
simple_pc1_gm_gate_t254,score_all_max,0.05,pc3__le,2.1506591515994145,74,8477,0.772914946325351,0.641529419660548,0.9178571428571428,0.6956619972887483,0.32116788321167883,0.7171066752522001,0.8934997098084736,0.3548387096774194,0.8051572478611881,0.7822662601626016,0.3371647509578544,3640,4426,411,8066,0.7959335482271263,0.538413670143774,0.9178571428571428,0.6956619972887483,0.0,0.7504492362982929,0.9125666864256076,0.0,0.8257538309441423,0.7894871794871795,0.0,3640,4426,0,119,1.0,0.3333333333333333,0.0,0.0,1.0,0.0,0.0,1.0,0.0,0.0,1.0,0,0,119,292,0.04452054794520548,0.028415300546448086,0.0,0.0,0.04452054794520548,0.0,0.0,1.0,0.0,0.0,0.08524590163934426,0,0,292,8185,0.7989004276114844,0.7043829867407055,0.9178571428571428,0.6956619972887483,1.0,0.7504492362982929,0.9125666864256076,0.33147632311977715,0.8257538309441423,0.7894871794871795,0.497907949790795,3640,4426,119,0.029754525167369206,0.32116788321167883,1.0420017876412193
simple_pc1_gm_gate_t254,score_core,0.02,pc1__le,-0.7734152380448813,88,8477,0.772914946325351,0.6400087405047837,0.9178571428571428,0.6956619972887483,0.32116788321167883,0.7192680301399355,0.8934997098084736,0.34196891191709844,0.8065178032589017,0.7822662601626016,0.3312421580928482,3640,4426,411,8066,0.7959335482271263,0.5388907087520606,0.9178571428571428,0.6956619972887483,0.0,0.7528165840468679,0.9125666864256076,0.0,0.8271849467690022,0.7894871794871795,0.0,3640,4426,0,119,1.0,0.3333333333333333,0.0,0.0,1.0,0.0,0.0,1.0,0.0,0.0,1.0,0,0,119,292,0.04452054794520548,0.028415300546448086,0.0,0.0,0.04452054794520548,0.0,0.0,1.0,0.0,0.0,0.08524590163934426,0,0,292,8185,0.7989004276114844,0.7001373212181853,0.9178571428571428,0.6956619972887483,1.0,0.7528165840468679,0.9125666864256076,0.3190348525469169,0.8271849467690022,0.7894871794871795,0.483739837398374,3640,4426,119,0.03149020580213241,0.32116788321167883,1.0420017876412193
simple_pc1_gm_gate_t254,score_core,0.02,pc2__ge,10.616705266871826,88,8477,0.772914946325351,0.6400087405047837,0.9178571428571428,0.6956619972887483,0.32116788321167883,0.7192680301399355,0.8934997098084736,0.34196891191709844,0.8065178032589017,0.7822662601626016,0.3312421580928482,3640,4426,411,8066,0.7959335482271263,0.5388907087520606,0.9178571428571428,0.6956619972887483,0.0,0.7528165840468679,0.9125666864256076,0.0,0.8271849467690022,0.7894871794871795,0.0,3640,4426,0,119,1.0,0.3333333333333333,0.0,0.0,1.0,0.0,0.0,1.0,0.0,0.0,1.0,0,0,119,292,0.04452054794520548,0.028415300546448086,0.0,0.0,0.04452054794520548,0.0,0.0,1.0,0.0,0.0,0.08524590163934426,0,0,292,8185,0.7989004276114844,0.7001373212181853,0.9178571428571428,0.6956619972887483,1.0,0.7528165840468679,0.9125666864256076,0.3190348525469169,0.8271849467690022,0.7894871794871795,0.483739837398374,3640,4426,119,0.03149020580213241,0.32116788321167883,1.0420017876412193
simple_pc1_gm_gate_t254,score_core,0.02,qrs_visibility__le,0.0524517835345784,87,8477,0.772914946325351,0.6401150066265343,0.9178571428571428,0.6956619972887483,0.32116788321167883,0.719113215669393,0.8934997098084736,0.34285714285714286,0.8064204682597151,0.7822662601626016,0.3316582914572864,3640,4426,411,8066,0.7959335482271263,0.5388565797366391,0.9178571428571428,0.6956619972887483,0.0,0.7526469925658932,0.9125666864256076,0.0,0.8270825597227379,0.7894871794871795,0.0,3640,4426,0,119,1.0,0.3333333333333333,0.0,0.0,1.0,0.0,0.0,1.0,0.0,0.0,1.0,0,0,119,292,0.04452054794520548,0.028415300546448086,0.0,0.0,0.04452054794520548,0.0,0.0,1.0,0.0,0.0,0.08524590163934426,0,0,292,8185,0.7989004276114844,0.7004315967088047,0.9178571428571428,0.6956619972887483,1.0,0.7526469925658932,0.9125666864256076,0.31989247311827956,0.8270825597227379,0.7894871794871795,0.4847250509164969,3640,4426,119,0.03136622861393504,0.32116788321167883,1.0420017876412193
simple_pc1_gm_gate_t254,score_core,0.03,pc1__le,0.15713262094765446,80,8477,0.772914946325351,0.6408689337188928,0.9178571428571428,0.6956619972887483,0.32116788321167883,0.7180313776058457,0.8934997098084736,0.3492063492063492,0.8057397805378029,0.7822662601626016,0.33460076045627374,3640,4426,411,8066,0.7959335482271263,0.5386179129909033,0.9178571428571428,0.6956619972887483,0.0,0.7514619883040936,0.9125666864256076,0.0,0.8263665594855305,0.7894871794871795,0.0,3640,4426,0,119,1.0,0.3333333333333333,0.0,0.0,1.0,0.0,0.0,1.0,0.0,0.0,1.0,0,0,119,292,0.04452054794520548,0.028415300546448086,0.0,0.0,0.04452054794520548,0.0,0.0,1.0,0.0,0.0,0.08524590163934426,0,0,292,8185,0.7989004276114844,0.702529758720931,0.9178571428571428,0.6956619972887483,1.0,0.7514619883040936,0.9125666864256076,0.32602739726027397,0.8263665594855305,0.7894871794871795,0.49173553719008267,3640,4426,119,0.030498388296553436,0.32116788321167883,1.0420017876412193
simple_pc1_gm_gate_t254,score_core,0.03,pc2__ge,5.370042063114319,80,8477,0.772914946325351,0.6408689337188928,0.9178571428571428,0.6956619972887483,0.32116788321167883,0.7180313776058457,0.8934997098084736,0.3492063492063492,0.8057397805378029,0.7822662601626016,0.33460076045627374,3640,4426,411,8066,0.7959335482271263,0.5386179129909033,0.9178571428571428,0.6956619972887483,0.0,0.7514619883040936,0.9125666864256076,0.0,0.8263665594855305,0.7894871794871795,0.0,3640,4426,0,119,1.0,0.3333333333333333,0.0,0.0,1.0,0.0,0.0,1.0,0.0,0.0,1.0,0,0,119,292,0.04452054794520548,0.028415300546448086,0.0,0.0,0.04452054794520548,0.0,0.0,1.0,0.0,0.0,0.08524590163934426,0,0,292,8185,0.7989004276114844,0.702529758720931,0.9178571428571428,0.6956619972887483,1.0,0.7514619883040936,0.9125666864256076,0.32602739726027397,0.8263665594855305,0.7894871794871795,0.49173553719008267,3640,4426,119,0.030498388296553436,0.32116788321167883,1.0420017876412193
simple_pc1_gm_gate_t254,score_core,0.03,pc3__le,2.1506591515994145,80,8477,0.772914946325351,0.6408689337188928,0.9178571428571428,0.6956619972887483,0.32116788321167883,0.7180313776058457,0.8934997098084736,0.3492063492063492,0.8057397805378029,0.7822662601626016,0.33460076045627374,3640,4426,411,8066,0.7959335482271263,0.5386179129909033,0.9178571428571428,0.6956619972887483,0.0,0.7514619883040936,0.9125666864256076,0.0,0.8263665594855305,0.7894871794871795,0.0,3640,4426,0,119,1.0,0.3333333333333333,0.0,0.0,1.0,0.0,0.0,1.0,0.0,0.0,1.0,0,0,119,292,0.04452054794520548,0.028415300546448086,0.0,0.0,0.04452054794520548,0.0,0.0,1.0,0.0,0.0,0.08524590163934426,0,0,292,8185,0.7989004276114844,0.702529758720931,0.9178571428571428,0.6956619972887483,1.0,0.7514619883040936,0.9125666864256076,0.32602739726027397,0.8263665594855305,0.7894871794871795,0.49173553719008267,3640,4426,119,0.030498388296553436,0.32116788321167883,1.0420017876412193
simple_pc1_gm_gate_t254,score_core,0.05,pc1__le,0.15713262094765446,74,8477,0.772914946325351,0.641529419660548,0.9178571428571428,0.6956619972887483,0.32116788321167883,0.7171066752522001,0.8934997098084736,0.3548387096774194,0.8051572478611881,0.7822662601626016,0.3371647509578544,3640,4426,411,8066,0.7959335482271263,0.538413670143774,0.9178571428571428,0.6956619972887483,0.0,0.7504492362982929,0.9125666864256076,0.0,0.8257538309441423,0.7894871794871795,0.0,3640,4426,0,119,1.0,0.3333333333333333,0.0,0.0,1.0,0.0,0.0,1.0,0.0,0.0,1.0,0,0,119,292,0.04452054794520548,0.028415300546448086,0.0,0.0,0.04452054794520548,0.0,0.0,1.0,0.0,0.0,0.08524590163934426,0,0,292,8185,0.7989004276114844,0.7043829867407055,0.9178571428571428,0.6956619972887483,1.0,0.7504492362982929,0.9125666864256076,0.33147632311977715,0.8257538309441423,0.7894871794871795,0.497907949790795,3640,4426,119,0.029754525167369206,0.32116788321167883,1.0420017876412193
simple_pc1_gm_gate_t254,score_core,0.05,pc2__ge,5.370042063114319,74,8477,0.772914946325351,0.641529419660548,0.9178571428571428,0.6956619972887483,0.32116788321167883,0.7171066752522001,0.8934997098084736,0.3548387096774194,0.8051572478611881,0.7822662601626016,0.3371647509578544,3640,4426,411,8066,0.7959335482271263,0.538413670143774,0.9178571428571428,0.6956619972887483,0.0,0.7504492362982929,0.9125666864256076,0.0,0.8257538309441423,0.7894871794871795,0.0,3640,4426,0,119,1.0,0.3333333333333333,0.0,0.0,1.0,0.0,0.0,1.0,0.0,0.0,1.0,0,0,119,292,0.04452054794520548,0.028415300546448086,0.0,0.0,0.04452054794520548,0.0,0.0,1.0,0.0,0.0,0.08524590163934426,0,0,292,8185,0.7989004276114844,0.7043829867407055,0.9178571428571428,0.6956619972887483,1.0,0.7504492362982929,0.9125666864256076,0.33147632311977715,0.8257538309441423,0.7894871794871795,0.497907949790795,3640,4426,119,0.029754525167369206,0.32116788321167883,1.0420017876412193
simple_pc1_gm_gate_t254,score_core,0.05,pc3__le,2.1506591515994145,74,8477,0.772914946325351,0.641529419660548,0.9178571428571428,0.6956619972887483,0.32116788321167883,0.7171066752522001,0.8934997098084736,0.3548387096774194,0.8051572478611881,0.7822662601626016,0.3371647509578544,3640,4426,411,8066,0.7959335482271263,0.538413670143774,0.9178571428571428,0.6956619972887483,0.0,0.7504492362982929,0.9125666864256076,0.0,0.8257538309441423,0.7894871794871795,0.0,3640,4426,0,119,1.0,0.3333333333333333,0.0,0.0,1.0,0.0,0.0,1.0,0.0,0.0,1.0,0,0,119,292,0.04452054794520548,0.028415300546448086,0.0,0.0,0.04452054794520548,0.0,0.0,1.0,0.0,0.0,0.08524590163934426,0,0,292,8185,0.7989004276114844,0.7043829867407055,0.9178571428571428,0.6956619972887483,1.0,0.7504492362982929,0.9125666864256076,0.33147632311977715,0.8257538309441423,0.7894871794871795,0.497907949790795,3640,4426,119,0.029754525167369206,0.32116788321167883,1.0420017876412193
simple_pc1_gm_gate_t254,score_outlier,0.02,pc1__le,-0.7734152380448813,88,8477,0.772914946325351,0.6400087405047837,0.9178571428571428,0.6956619972887483,0.32116788321167883,0.7192680301399355,0.8934997098084736,0.34196891191709844,0.8065178032589017,0.7822662601626016,0.3312421580928482,3640,4426,411,8066,0.7959335482271263,0.5388907087520606,0.9178571428571428,0.6956619972887483,0.0,0.7528165840468679,0.9125666864256076,0.0,0.8271849467690022,0.7894871794871795,0.0,3640,4426,0,119,1.0,0.3333333333333333,0.0,0.0,1.0,0.0,0.0,1.0,0.0,0.0,1.0,0,0,119,292,0.04452054794520548,0.028415300546448086,0.0,0.0,0.04452054794520548,0.0,0.0,1.0,0.0,0.0,0.08524590163934426,0,0,292,8185,0.7989004276114844,0.7001373212181853,0.9178571428571428,0.6956619972887483,1.0,0.7528165840468679,0.9125666864256076,0.3190348525469169,0.8271849467690022,0.7894871794871795,0.483739837398374,3640,4426,119,0.03149020580213241,0.32116788321167883,1.0420017876412193
simple_pc1_gm_gate_t254,score_outlier,0.02,pc2__ge,10.616705266871826,88,8477,0.772914946325351,0.6400087405047837,0.9178571428571428,0.6956619972887483,0.32116788321167883,0.7192680301399355,0.8934997098084736,0.34196891191709844,0.8065178032589017,0.7822662601626016,0.3312421580928482,3640,4426,411,8066,0.7959335482271263,0.5388907087520606,0.9178571428571428,0.6956619972887483,0.0,0.7528165840468679,0.9125666864256076,0.0,0.8271849467690022,0.7894871794871795,0.0,3640,4426,0,119,1.0,0.3333333333333333,0.0,0.0,1.0,0.0,0.0,1.0,0.0,0.0,1.0,0,0,119,292,0.04452054794520548,0.028415300546448086,0.0,0.0,0.04452054794520548,0.0,0.0,1.0,0.0,0.0,0.08524590163934426,0,0,292,8185,0.7989004276114844,0.7001373212181853,0.9178571428571428,0.6956619972887483,1.0,0.7528165840468679,0.9125666864256076,0.3190348525469169,0.8271849467690022,0.7894871794871795,0.483739837398374,3640,4426,119,0.03149020580213241,0.32116788321167883,1.0420017876412193
simple_pc1_gm_gate_t254,score_outlier,0.02,qrs_visibility__le,0.0524517835345784,87,8477,0.772914946325351,0.6401150066265343,0.9178571428571428,0.6956619972887483,0.32116788321167883,0.719113215669393,0.8934997098084736,0.34285714285714286,0.8064204682597151,0.7822662601626016,0.3316582914572864,3640,4426,411,8066,0.7959335482271263,0.5388565797366391,0.9178571428571428,0.6956619972887483,0.0,0.7526469925658932,0.9125666864256076,0.0,0.8270825597227379,0.7894871794871795,0.0,3640,4426,0,119,1.0,0.3333333333333333,0.0,0.0,1.0,0.0,0.0,1.0,0.0,0.0,1.0,0,0,119,292,0.04452054794520548,0.028415300546448086,0.0,0.0,0.04452054794520548,0.0,0.0,1.0,0.0,0.0,0.08524590163934426,0,0,292,8185,0.7989004276114844,0.7004315967088047,0.9178571428571428,0.6956619972887483,1.0,0.7526469925658932,0.9125666864256076,0.31989247311827956,0.8270825597227379,0.7894871794871795,0.4847250509164969,3640,4426,119,0.03136622861393504,0.32116788321167883,1.0420017876412193
simple_pc1_gm_gate_t254,score_outlier,0.03,pc1__le,0.15713262094765446,80,8477,0.772914946325351,0.6408689337188928,0.9178571428571428,0.6956619972887483,0.32116788321167883,0.7180313776058457,0.8934997098084736,0.3492063492063492,0.8057397805378029,0.7822662601626016,0.33460076045627374,3640,4426,411,8066,0.7959335482271263,0.5386179129909033,0.9178571428571428,0.6956619972887483,0.0,0.7514619883040936,0.9125666864256076,0.0,0.8263665594855305,0.7894871794871795,0.0,3640,4426,0,119,1.0,0.3333333333333333,0.0,0.0,1.0,0.0,0.0,1.0,0.0,0.0,1.0,0,0,119,292,0.04452054794520548,0.028415300546448086,0.0,0.0,0.04452054794520548,0.0,0.0,1.0,0.0,0.0,0.08524590163934426,0,0,292,8185,0.7989004276114844,0.702529758720931,0.9178571428571428,0.6956619972887483,1.0,0.7514619883040936,0.9125666864256076,0.32602739726027397,0.8263665594855305,0.7894871794871795,0.49173553719008267,3640,4426,119,0.030498388296553436,0.32116788321167883,1.0420017876412193
simple_pc1_gm_gate_t254,score_outlier,0.03,pc2__ge,5.370042063114319,80,8477,0.772914946325351,0.6408689337188928,0.9178571428571428,0.6956619972887483,0.32116788321167883,0.7180313776058457,0.8934997098084736,0.3492063492063492,0.8057397805378029,0.7822662601626016,0.33460076045627374,3640,4426,411,8066,0.7959335482271263,0.5386179129909033,0.9178571428571428,0.6956619972887483,0.0,0.7514619883040936,0.9125666864256076,0.0,0.8263665594855305,0.7894871794871795,0.0,3640,4426,0,119,1.0,0.3333333333333333,0.0,0.0,1.0,0.0,0.0,1.0,0.0,0.0,1.0,0,0,119,292,0.04452054794520548,0.028415300546448086,0.0,0.0,0.04452054794520548,0.0,0.0,1.0,0.0,0.0,0.08524590163934426,0,0,292,8185,0.7989004276114844,0.702529758720931,0.9178571428571428,0.6956619972887483,1.0,0.7514619883040936,0.9125666864256076,0.32602739726027397,0.8263665594855305,0.7894871794871795,0.49173553719008267,3640,4426,119,0.030498388296553436,0.32116788321167883,1.0420017876412193
simple_pc1_gm_gate_t254,score_outlier,0.03,pc3__le,2.1506591515994145,80,8477,0.772914946325351,0.6408689337188928,0.9178571428571428,0.6956619972887483,0.32116788321167883,0.7180313776058457,0.8934997098084736,0.3492063492063492,0.8057397805378029,0.7822662601626016,0.33460076045627374,3640,4426,411,8066,0.7959335482271263,0.5386179129909033,0.9178571428571428,0.6956619972887483,0.0,0.7514619883040936,0.9125666864256076,0.0,0.8263665594855305,0.7894871794871795,0.0,3640,4426,0,119,1.0,0.3333333333333333,0.0,0.0,1.0,0.0,0.0,1.0,0.0,0.0,1.0,0,0,119,292,0.04452054794520548,0.028415300546448086,0.0,0.0,0.04452054794520548,0.0,0.0,1.0,0.0,0.0,0.08524590163934426,0,0,292,8185,0.7989004276114844,0.702529758720931,0.9178571428571428,0.6956619972887483,1.0,0.7514619883040936,0.9125666864256076,0.32602739726027397,0.8263665594855305,0.7894871794871795,0.49173553719008267,3640,4426,119,0.030498388296553436,0.32116788321167883,1.0420017876412193
simple_pc1_gm_gate_t254,score_outlier,0.05,pc1__le,0.15713262094765446,74,8477,0.772914946325351,0.641529419660548,0.9178571428571428,0.6956619972887483,0.32116788321167883,0.7171066752522001,0.8934997098084736,0.3548387096774194,0.8051572478611881,0.7822662601626016,0.3371647509578544,3640,4426,411,8066,0.7959335482271263,0.538413670143774,0.9178571428571428,0.6956619972887483,0.0,0.7504492362982929,0.9125666864256076,0.0,0.8257538309441423,0.7894871794871795,0.0,3640,4426,0,119,1.0,0.3333333333333333,0.0,0.0,1.0,0.0,0.0,1.0,0.0,0.0,1.0,0,0,119,292,0.04452054794520548,0.028415300546448086,0.0,0.0,0.04452054794520548,0.0,0.0,1.0,0.0,0.0,0.08524590163934426,0,0,292,8185,0.7989004276114844,0.7043829867407055,0.9178571428571428,0.6956619972887483,1.0,0.7504492362982929,0.9125666864256076,0.33147632311977715,0.8257538309441423,0.7894871794871795,0.497907949790795,3640,4426,119,0.029754525167369206,0.32116788321167883,1.0420017876412193
simple_pc1_gm_gate_t254,score_outlier,0.05,pc2__ge,5.370042063114319,74,8477,0.772914946325351,0.641529419660548,0.9178571428571428,0.6956619972887483,0.32116788321167883,0.7171066752522001,0.8934997098084736,0.3548387096774194,0.8051572478611881,0.7822662601626016,0.3371647509578544,3640,4426,411,8066,0.7959335482271263,0.538413670143774,0.9178571428571428,0.6956619972887483,0.0,0.7504492362982929,0.9125666864256076,0.0,0.8257538309441423,0.7894871794871795,0.0,3640,4426,0,119,1.0,0.3333333333333333,0.0,0.0,1.0,0.0,0.0,1.0,0.0,0.0,1.0,0,0,119,292,0.04452054794520548,0.028415300546448086,0.0,0.0,0.04452054794520548,0.0,0.0,1.0,0.0,0.0,0.08524590163934426,0,0,292,8185,0.7989004276114844,0.7043829867407055,0.9178571428571428,0.6956619972887483,1.0,0.7504492362982929,0.9125666864256076,0.33147632311977715,0.8257538309441423,0.7894871794871795,0.497907949790795,3640,4426,119,0.029754525167369206,0.32116788321167883,1.0420017876412193
simple_pc1_gm_gate_t254,score_outlier,0.05,pc3__le,2.1506591515994145,74,8477,0.772914946325351,0.641529419660548,0.9178571428571428,0.6956619972887483,0.32116788321167883,0.7171066752522001,0.8934997098084736,0.3548387096774194,0.8051572478611881,0.7822662601626016,0.3371647509578544,3640,4426,411,8066,0.7959335482271263,0.538413670143774,0.9178571428571428,0.6956619972887483,0.0,0.7504492362982929,0.9125666864256076,0.0,0.8257538309441423,0.7894871794871795,0.0,3640,4426,0,119,1.0,0.3333333333333333,0.0,0.0,1.0,0.0,0.0,1.0,0.0,0.0,1.0,0,0,119,292,0.04452054794520548,0.028415300546448086,0.0,0.0,0.04452054794520548,0.0,0.0,1.0,0.0,0.0,0.08524590163934426,0,0,292,8185,0.7989004276114844,0.7043829867407055,0.9178571428571428,0.6956619972887483,1.0,0.7504492362982929,0.9125666864256076,0.33147632311977715,0.8257538309441423,0.7894871794871795,0.497907949790795,3640,4426,119,0.029754525167369206,0.32116788321167883,1.0420017876412193
