base_mode,score_col,score_threshold,gate,gate_threshold,changed_to_bad,test_all_n,test_all_acc,test_all_macro_f1,test_all_good_recall,test_all_medium_recall,test_all_bad_recall,test_all_good_precision,test_all_medium_precision,test_all_bad_precision,test_all_good_f1,test_all_medium_f1,test_all_bad_f1,test_all_support_good,test_all_support_medium,test_all_support_bad,gm_only_n,gm_only_acc,gm_only_macro_f1,gm_only_good_recall,gm_only_medium_recall,gm_only_bad_recall,gm_only_good_precision,gm_only_medium_precision,gm_only_bad_precision,gm_only_good_f1,gm_only_medium_f1,gm_only_bad_f1,gm_only_support_good,gm_only_support_medium,gm_only_support_bad,bad_core_n,bad_core_acc,bad_core_macro_f1,bad_core_good_recall,bad_core_medium_recall,bad_core_bad_recall,bad_core_good_precision,bad_core_medium_precision,bad_core_bad_precision,bad_core_good_f1,bad_core_medium_f1,bad_core_bad_f1,bad_core_support_good,bad_core_support_medium,bad_core_support_bad,bad_outlier_n,bad_outlier_acc,bad_outlier_macro_f1,bad_outlier_good_recall,bad_outlier_medium_recall,bad_outlier_bad_recall,bad_outlier_good_precision,bad_outlier_medium_precision,bad_outlier_bad_precision,bad_outlier_good_f1,bad_outlier_medium_f1,bad_outlier_bad_f1,bad_outlier_support_good,bad_outlier_support_medium,bad_outlier_support_bad,drop_bad_outlier_n,drop_bad_outlier_acc,drop_bad_outlier_macro_f1,drop_bad_outlier_good_recall,drop_bad_outlier_medium_recall,drop_bad_outlier_bad_recall,drop_bad_outlier_good_precision,drop_bad_outlier_medium_precision,drop_bad_outlier_bad_precision,drop_bad_outlier_good_f1,drop_bad_outlier_medium_f1,drop_bad_outlier_bad_f1,drop_bad_outlier_support_good,drop_bad_outlier_support_medium,drop_bad_outlier_support_bad,gm_false_bad_rate,bad_caught_rate,balanced_score
simple_pc1_gm_gate_t254,score_dual,0.01,pc3__le,2.1506591515994145,198,8477,0.7653651055798042,0.6250155094462958,0.9087912087912088,0.6821057388160867,0.39172749391727496,0.7650323774283071,0.8955799466033818,0.20588235294117646,0.8307383224510296,0.7744004104142619,0.269907795473596,3640,4426,411,8066,0.7844036697247706,0.543804595367032,0.9087912087912088,0.6821057388160867,0.0,0.7994200096665055,0.912912004838222,0.0,0.8506042684494729,0.7808095176516229,0.0,3640,4426,0,119,1.0,0.3333333333333333,0.0,0.0,1.0,0.0,0.0,1.0,0.0,0.0,1.0,0,0,119,292,0.14383561643835616,0.08383233532934131,0.0,0.0,0.14383561643835616,0.0,0.0,1.0,0.0,0.0,0.25149700598802394,0,0,292,8185,0.7875381795968235,0.6361600474430894,0.9087912087912088,0.6821057388160867,1.0,0.7994200096665055,0.912912004838222,0.1608108108108108,0.8506042684494729,0.7808095176516229,0.2770663562281723,3640,4426,119,0.07698983387056782,0.39172749391727496,1.0740450709166038
simple_pc1_gm_gate_t254,score_all_max,0.01,pc3__le,2.1506591515994145,198,8477,0.7653651055798042,0.6250155094462958,0.9087912087912088,0.6821057388160867,0.39172749391727496,0.7650323774283071,0.8955799466033818,0.20588235294117646,0.8307383224510296,0.7744004104142619,0.269907795473596,3640,4426,411,8066,0.7844036697247706,0.543804595367032,0.9087912087912088,0.6821057388160867,0.0,0.7994200096665055,0.912912004838222,0.0,0.8506042684494729,0.7808095176516229,0.0,3640,4426,0,119,1.0,0.3333333333333333,0.0,0.0,1.0,0.0,0.0,1.0,0.0,0.0,1.0,0,0,119,292,0.14383561643835616,0.08383233532934131,0.0,0.0,0.14383561643835616,0.0,0.0,1.0,0.0,0.0,0.25149700598802394,0,0,292,8185,0.7875381795968235,0.6361600474430894,0.9087912087912088,0.6821057388160867,1.0,0.7994200096665055,0.912912004838222,0.1608108108108108,0.8506042684494729,0.7808095176516229,0.2770663562281723,3640,4426,119,0.07698983387056782,0.39172749391727496,1.0740450709166038
simple_pc1_gm_gate_t254,score_core,0.01,pc3__le,2.1506591515994145,198,8477,0.7653651055798042,0.6250155094462958,0.9087912087912088,0.6821057388160867,0.39172749391727496,0.7650323774283071,0.8955799466033818,0.20588235294117646,0.8307383224510296,0.7744004104142619,0.269907795473596,3640,4426,411,8066,0.7844036697247706,0.543804595367032,0.9087912087912088,0.6821057388160867,0.0,0.7994200096665055,0.912912004838222,0.0,0.8506042684494729,0.7808095176516229,0.0,3640,4426,0,119,1.0,0.3333333333333333,0.0,0.0,1.0,0.0,0.0,1.0,0.0,0.0,1.0,0,0,119,292,0.14383561643835616,0.08383233532934131,0.0,0.0,0.14383561643835616,0.0,0.0,1.0,0.0,0.0,0.25149700598802394,0,0,292,8185,0.7875381795968235,0.6361600474430894,0.9087912087912088,0.6821057388160867,1.0,0.7994200096665055,0.912912004838222,0.1608108108108108,0.8506042684494729,0.7808095176516229,0.2770663562281723,3640,4426,119,0.07698983387056782,0.39172749391727496,1.0740450709166038
simple_pc1_gm_gate_t254,score_outlier,0.01,pc3__le,2.1506591515994145,198,8477,0.7653651055798042,0.6250155094462958,0.9087912087912088,0.6821057388160867,0.39172749391727496,0.7650323774283071,0.8955799466033818,0.20588235294117646,0.8307383224510296,0.7744004104142619,0.269907795473596,3640,4426,411,8066,0.7844036697247706,0.543804595367032,0.9087912087912088,0.6821057388160867,0.0,0.7994200096665055,0.912912004838222,0.0,0.8506042684494729,0.7808095176516229,0.0,3640,4426,0,119,1.0,0.3333333333333333,0.0,0.0,1.0,0.0,0.0,1.0,0.0,0.0,1.0,0,0,119,292,0.14383561643835616,0.08383233532934131,0.0,0.0,0.14383561643835616,0.0,0.0,1.0,0.0,0.0,0.25149700598802394,0,0,292,8185,0.7875381795968235,0.6361600474430894,0.9087912087912088,0.6821057388160867,1.0,0.7994200096665055,0.912912004838222,0.1608108108108108,0.8506042684494729,0.7808095176516229,0.2770663562281723,3640,4426,119,0.07698983387056782,0.39172749391727496,1.0740450709166038
simple_pc1_gm_gate_t254,score_dual,0.01,pc3__le,3.281193089810729,233,8477,0.7615901852070308,0.6213255061013202,0.9087912087912088,0.6746497966561229,0.39416058394160586,0.7652093453620171,0.8948157027270003,0.19828641370869032,0.8308426472435012,0.7692902228519902,0.26384364820846906,3640,4426,411,8066,0.7803124225142574,0.5420993527924222,0.9087912087912088,0.6746497966561229,0.0,0.799613246313754,0.9120342089187539,0.0,0.8507136427928507,0.7755844155844156,0.0,3640,4426,0,119,1.0,0.3333333333333333,0.0,0.0,1.0,0.0,0.0,1.0,0.0,0.0,1.0,0,0,119,292,0.14726027397260275,0.08557213930348258,0.0,0.0,0.14726027397260275,0.0,0.0,1.0,0.0,0.0,0.25671641791044775,0,0,292,8185,0.7835064141722663,0.6309384718667036,0.9087912087912088,0.6746497966561229,1.0,0.799613246313754,0.9120342089187539,0.15374677002583978,0.8507136427928507,0.7755844155844156,0.26651735722284436,3640,4426,119,0.08120505826927846,0.39416058394160586,1.0716354306824833
simple_pc1_gm_gate_t254,score_all_max,0.01,pc3__le,3.281193089810729,233,8477,0.7615901852070308,0.6213255061013202,0.9087912087912088,0.6746497966561229,0.39416058394160586,0.7652093453620171,0.8948157027270003,0.19828641370869032,0.8308426472435012,0.7692902228519902,0.26384364820846906,3640,4426,411,8066,0.7803124225142574,0.5420993527924222,0.9087912087912088,0.6746497966561229,0.0,0.799613246313754,0.9120342089187539,0.0,0.8507136427928507,0.7755844155844156,0.0,3640,4426,0,119,1.0,0.3333333333333333,0.0,0.0,1.0,0.0,0.0,1.0,0.0,0.0,1.0,0,0,119,292,0.14726027397260275,0.08557213930348258,0.0,0.0,0.14726027397260275,0.0,0.0,1.0,0.0,0.0,0.25671641791044775,0,0,292,8185,0.7835064141722663,0.6309384718667036,0.9087912087912088,0.6746497966561229,1.0,0.799613246313754,0.9120342089187539,0.15374677002583978,0.8507136427928507,0.7755844155844156,0.26651735722284436,3640,4426,119,0.08120505826927846,0.39416058394160586,1.0716354306824833
simple_pc1_gm_gate_t254,score_core,0.01,pc3__le,3.281193089810729,233,8477,0.7615901852070308,0.6213255061013202,0.9087912087912088,0.6746497966561229,0.39416058394160586,0.7652093453620171,0.8948157027270003,0.19828641370869032,0.8308426472435012,0.7692902228519902,0.26384364820846906,3640,4426,411,8066,0.7803124225142574,0.5420993527924222,0.9087912087912088,0.6746497966561229,0.0,0.799613246313754,0.9120342089187539,0.0,0.8507136427928507,0.7755844155844156,0.0,3640,4426,0,119,1.0,0.3333333333333333,0.0,0.0,1.0,0.0,0.0,1.0,0.0,0.0,1.0,0,0,119,292,0.14726027397260275,0.08557213930348258,0.0,0.0,0.14726027397260275,0.0,0.0,1.0,0.0,0.0,0.25671641791044775,0,0,292,8185,0.7835064141722663,0.6309384718667036,0.9087912087912088,0.6746497966561229,1.0,0.799613246313754,0.9120342089187539,0.15374677002583978,0.8507136427928507,0.7755844155844156,0.26651735722284436,3640,4426,119,0.08120505826927846,0.39416058394160586,1.0716354306824833
simple_pc1_gm_gate_t254,score_outlier,0.01,pc3__le,3.281193089810729,233,8477,0.7615901852070308,0.6213255061013202,0.9087912087912088,0.6746497966561229,0.39416058394160586,0.7652093453620171,0.8948157027270003,0.19828641370869032,0.8308426472435012,0.7692902228519902,0.26384364820846906,3640,4426,411,8066,0.7803124225142574,0.5420993527924222,0.9087912087912088,0.6746497966561229,0.0,0.799613246313754,0.9120342089187539,0.0,0.8507136427928507,0.7755844155844156,0.0,3640,4426,0,119,1.0,0.3333333333333333,0.0,0.0,1.0,0.0,0.0,1.0,0.0,0.0,1.0,0,0,119,292,0.14726027397260275,0.08557213930348258,0.0,0.0,0.14726027397260275,0.0,0.0,1.0,0.0,0.0,0.25671641791044775,0,0,292,8185,0.7835064141722663,0.6309384718667036,0.9087912087912088,0.6746497966561229,1.0,0.799613246313754,0.9120342089187539,0.15374677002583978,0.8507136427928507,0.7755844155844156,0.26651735722284436,3640,4426,119,0.08120505826927846,0.39416058394160586,1.0716354306824833
simple_pc1_gm_gate_t254,score_dual,0.01,none,,235,8477,0.7613542526837325,0.621076783956817,0.9087912087912088,0.6741979213737008,0.39416058394160586,0.7652093453620171,0.8947526236881559,0.1978021978021978,0.8308426472435012,0.7689730704806081,0.2634146341463415,3640,4426,411,8066,0.7800644681378627,0.5419933152428927,0.9087912087912088,0.6741979213737008,0.0,0.799613246313754,0.9119804400977995,0.0,0.8507136427928507,0.7752663029358274,0.0,3640,4426,0,119,1.0,0.3333333333333333,0.0,0.0,1.0,0.0,0.0,1.0,0.0,0.0,1.0,0,0,119,292,0.14726027397260275,0.08557213930348258,0.0,0.0,0.14726027397260275,0.0,0.0,1.0,0.0,0.0,0.25671641791044775,0,0,292,8185,0.7832620647525962,0.6306339111460585,0.9087912087912088,0.6741979213737008,1.0,0.799613246313754,0.9119804400977995,0.15335051546391754,0.8507136427928507,0.7752663029358274,0.2659217877094972,3640,4426,119,0.0814530126456732,0.39416058394160586,1.071399498159185
simple_pc1_gm_gate_t254,score_dual,0.01,qrs_visibility__le,0.2800807397384144,235,8477,0.7613542526837325,0.621076783956817,0.9087912087912088,0.6741979213737008,0.39416058394160586,0.7652093453620171,0.8947526236881559,0.1978021978021978,0.8308426472435012,0.7689730704806081,0.2634146341463415,3640,4426,411,8066,0.7800644681378627,0.5419933152428927,0.9087912087912088,0.6741979213737008,0.0,0.799613246313754,0.9119804400977995,0.0,0.8507136427928507,0.7752663029358274,0.0,3640,4426,0,119,1.0,0.3333333333333333,0.0,0.0,1.0,0.0,0.0,1.0,0.0,0.0,1.0,0,0,119,292,0.14726027397260275,0.08557213930348258,0.0,0.0,0.14726027397260275,0.0,0.0,1.0,0.0,0.0,0.25671641791044775,0,0,292,8185,0.7832620647525962,0.6306339111460585,0.9087912087912088,0.6741979213737008,1.0,0.799613246313754,0.9119804400977995,0.15335051546391754,0.8507136427928507,0.7752663029358274,0.2659217877094972,3640,4426,119,0.0814530126456732,0.39416058394160586,1.071399498159185
simple_pc1_gm_gate_t254,score_dual,0.01,qrs_visibility__le,0.3732307518330272,235,8477,0.7613542526837325,0.621076783956817,0.9087912087912088,0.6741979213737008,0.39416058394160586,0.7652093453620171,0.8947526236881559,0.1978021978021978,0.8308426472435012,0.7689730704806081,0.2634146341463415,3640,4426,411,8066,0.7800644681378627,0.5419933152428927,0.9087912087912088,0.6741979213737008,0.0,0.799613246313754,0.9119804400977995,0.0,0.8507136427928507,0.7752663029358274,0.0,3640,4426,0,119,1.0,0.3333333333333333,0.0,0.0,1.0,0.0,0.0,1.0,0.0,0.0,1.0,0,0,119,292,0.14726027397260275,0.08557213930348258,0.0,0.0,0.14726027397260275,0.0,0.0,1.0,0.0,0.0,0.25671641791044775,0,0,292,8185,0.7832620647525962,0.6306339111460585,0.9087912087912088,0.6741979213737008,1.0,0.799613246313754,0.9119804400977995,0.15335051546391754,0.8507136427928507,0.7752663029358274,0.2659217877094972,3640,4426,119,0.0814530126456732,0.39416058394160586,1.071399498159185
simple_pc1_gm_gate_t254,score_all_max,0.01,none,,235,8477,0.7613542526837325,0.621076783956817,0.9087912087912088,0.6741979213737008,0.39416058394160586,0.7652093453620171,0.8947526236881559,0.1978021978021978,0.8308426472435012,0.7689730704806081,0.2634146341463415,3640,4426,411,8066,0.7800644681378627,0.5419933152428927,0.9087912087912088,0.6741979213737008,0.0,0.799613246313754,0.9119804400977995,0.0,0.8507136427928507,0.7752663029358274,0.0,3640,4426,0,119,1.0,0.3333333333333333,0.0,0.0,1.0,0.0,0.0,1.0,0.0,0.0,1.0,0,0,119,292,0.14726027397260275,0.08557213930348258,0.0,0.0,0.14726027397260275,0.0,0.0,1.0,0.0,0.0,0.25671641791044775,0,0,292,8185,0.7832620647525962,0.6306339111460585,0.9087912087912088,0.6741979213737008,1.0,0.799613246313754,0.9119804400977995,0.15335051546391754,0.8507136427928507,0.7752663029358274,0.2659217877094972,3640,4426,119,0.0814530126456732,0.39416058394160586,1.071399498159185
simple_pc1_gm_gate_t254,score_all_max,0.01,qrs_visibility__le,0.2800807397384144,235,8477,0.7613542526837325,0.621076783956817,0.9087912087912088,0.6741979213737008,0.39416058394160586,0.7652093453620171,0.8947526236881559,0.1978021978021978,0.8308426472435012,0.7689730704806081,0.2634146341463415,3640,4426,411,8066,0.7800644681378627,0.5419933152428927,0.9087912087912088,0.6741979213737008,0.0,0.799613246313754,0.9119804400977995,0.0,0.8507136427928507,0.7752663029358274,0.0,3640,4426,0,119,1.0,0.3333333333333333,0.0,0.0,1.0,0.0,0.0,1.0,0.0,0.0,1.0,0,0,119,292,0.14726027397260275,0.08557213930348258,0.0,0.0,0.14726027397260275,0.0,0.0,1.0,0.0,0.0,0.25671641791044775,0,0,292,8185,0.7832620647525962,0.6306339111460585,0.9087912087912088,0.6741979213737008,1.0,0.799613246313754,0.9119804400977995,0.15335051546391754,0.8507136427928507,0.7752663029358274,0.2659217877094972,3640,4426,119,0.0814530126456732,0.39416058394160586,1.071399498159185
simple_pc1_gm_gate_t254,score_all_max,0.01,qrs_visibility__le,0.3732307518330272,235,8477,0.7613542526837325,0.621076783956817,0.9087912087912088,0.6741979213737008,0.39416058394160586,0.7652093453620171,0.8947526236881559,0.1978021978021978,0.8308426472435012,0.7689730704806081,0.2634146341463415,3640,4426,411,8066,0.7800644681378627,0.5419933152428927,0.9087912087912088,0.6741979213737008,0.0,0.799613246313754,0.9119804400977995,0.0,0.8507136427928507,0.7752663029358274,0.0,3640,4426,0,119,1.0,0.3333333333333333,0.0,0.0,1.0,0.0,0.0,1.0,0.0,0.0,1.0,0,0,119,292,0.14726027397260275,0.08557213930348258,0.0,0.0,0.14726027397260275,0.0,0.0,1.0,0.0,0.0,0.25671641791044775,0,0,292,8185,0.7832620647525962,0.6306339111460585,0.9087912087912088,0.6741979213737008,1.0,0.799613246313754,0.9119804400977995,0.15335051546391754,0.8507136427928507,0.7752663029358274,0.2659217877094972,3640,4426,119,0.0814530126456732,0.39416058394160586,1.071399498159185
simple_pc1_gm_gate_t254,score_core,0.01,none,,235,8477,0.7613542526837325,0.621076783956817,0.9087912087912088,0.6741979213737008,0.39416058394160586,0.7652093453620171,0.8947526236881559,0.1978021978021978,0.8308426472435012,0.7689730704806081,0.2634146341463415,3640,4426,411,8066,0.7800644681378627,0.5419933152428927,0.9087912087912088,0.6741979213737008,0.0,0.799613246313754,0.9119804400977995,0.0,0.8507136427928507,0.7752663029358274,0.0,3640,4426,0,119,1.0,0.3333333333333333,0.0,0.0,1.0,0.0,0.0,1.0,0.0,0.0,1.0,0,0,119,292,0.14726027397260275,0.08557213930348258,0.0,0.0,0.14726027397260275,0.0,0.0,1.0,0.0,0.0,0.25671641791044775,0,0,292,8185,0.7832620647525962,0.6306339111460585,0.9087912087912088,0.6741979213737008,1.0,0.799613246313754,0.9119804400977995,0.15335051546391754,0.8507136427928507,0.7752663029358274,0.2659217877094972,3640,4426,119,0.0814530126456732,0.39416058394160586,1.071399498159185
simple_pc1_gm_gate_t254,score_core,0.01,qrs_visibility__le,0.2800807397384144,235,8477,0.7613542526837325,0.621076783956817,0.9087912087912088,0.6741979213737008,0.39416058394160586,0.7652093453620171,0.8947526236881559,0.1978021978021978,0.8308426472435012,0.7689730704806081,0.2634146341463415,3640,4426,411,8066,0.7800644681378627,0.5419933152428927,0.9087912087912088,0.6741979213737008,0.0,0.799613246313754,0.9119804400977995,0.0,0.8507136427928507,0.7752663029358274,0.0,3640,4426,0,119,1.0,0.3333333333333333,0.0,0.0,1.0,0.0,0.0,1.0,0.0,0.0,1.0,0,0,119,292,0.14726027397260275,0.08557213930348258,0.0,0.0,0.14726027397260275,0.0,0.0,1.0,0.0,0.0,0.25671641791044775,0,0,292,8185,0.7832620647525962,0.6306339111460585,0.9087912087912088,0.6741979213737008,1.0,0.799613246313754,0.9119804400977995,0.15335051546391754,0.8507136427928507,0.7752663029358274,0.2659217877094972,3640,4426,119,0.0814530126456732,0.39416058394160586,1.071399498159185
simple_pc1_gm_gate_t254,score_core,0.01,qrs_visibility__le,0.3732307518330272,235,8477,0.7613542526837325,0.621076783956817,0.9087912087912088,0.6741979213737008,0.39416058394160586,0.7652093453620171,0.8947526236881559,0.1978021978021978,0.8308426472435012,0.7689730704806081,0.2634146341463415,3640,4426,411,8066,0.7800644681378627,0.5419933152428927,0.9087912087912088,0.6741979213737008,0.0,0.799613246313754,0.9119804400977995,0.0,0.8507136427928507,0.7752663029358274,0.0,3640,4426,0,119,1.0,0.3333333333333333,0.0,0.0,1.0,0.0,0.0,1.0,0.0,0.0,1.0,0,0,119,292,0.14726027397260275,0.08557213930348258,0.0,0.0,0.14726027397260275,0.0,0.0,1.0,0.0,0.0,0.25671641791044775,0,0,292,8185,0.7832620647525962,0.6306339111460585,0.9087912087912088,0.6741979213737008,1.0,0.799613246313754,0.9119804400977995,0.15335051546391754,0.8507136427928507,0.7752663029358274,0.2659217877094972,3640,4426,119,0.0814530126456732,0.39416058394160586,1.071399498159185
simple_pc1_gm_gate_t254,score_outlier,0.01,none,,235,8477,0.7613542526837325,0.621076783956817,0.9087912087912088,0.6741979213737008,0.39416058394160586,0.7652093453620171,0.8947526236881559,0.1978021978021978,0.8308426472435012,0.7689730704806081,0.2634146341463415,3640,4426,411,8066,0.7800644681378627,0.5419933152428927,0.9087912087912088,0.6741979213737008,0.0,0.799613246313754,0.9119804400977995,0.0,0.8507136427928507,0.7752663029358274,0.0,3640,4426,0,119,1.0,0.3333333333333333,0.0,0.0,1.0,0.0,0.0,1.0,0.0,0.0,1.0,0,0,119,292,0.14726027397260275,0.08557213930348258,0.0,0.0,0.14726027397260275,0.0,0.0,1.0,0.0,0.0,0.25671641791044775,0,0,292,8185,0.7832620647525962,0.6306339111460585,0.9087912087912088,0.6741979213737008,1.0,0.799613246313754,0.9119804400977995,0.15335051546391754,0.8507136427928507,0.7752663029358274,0.2659217877094972,3640,4426,119,0.0814530126456732,0.39416058394160586,1.071399498159185
simple_pc1_gm_gate_t254,score_outlier,0.01,qrs_visibility__le,0.2800807397384144,235,8477,0.7613542526837325,0.621076783956817,0.9087912087912088,0.6741979213737008,0.39416058394160586,0.7652093453620171,0.8947526236881559,0.1978021978021978,0.8308426472435012,0.7689730704806081,0.2634146341463415,3640,4426,411,8066,0.7800644681378627,0.5419933152428927,0.9087912087912088,0.6741979213737008,0.0,0.799613246313754,0.9119804400977995,0.0,0.8507136427928507,0.7752663029358274,0.0,3640,4426,0,119,1.0,0.3333333333333333,0.0,0.0,1.0,0.0,0.0,1.0,0.0,0.0,1.0,0,0,119,292,0.14726027397260275,0.08557213930348258,0.0,0.0,0.14726027397260275,0.0,0.0,1.0,0.0,0.0,0.25671641791044775,0,0,292,8185,0.7832620647525962,0.6306339111460585,0.9087912087912088,0.6741979213737008,1.0,0.799613246313754,0.9119804400977995,0.15335051546391754,0.8507136427928507,0.7752663029358274,0.2659217877094972,3640,4426,119,0.0814530126456732,0.39416058394160586,1.071399498159185
simple_pc1_gm_gate_t254,score_outlier,0.01,qrs_visibility__le,0.3732307518330272,235,8477,0.7613542526837325,0.621076783956817,0.9087912087912088,0.6741979213737008,0.39416058394160586,0.7652093453620171,0.8947526236881559,0.1978021978021978,0.8308426472435012,0.7689730704806081,0.2634146341463415,3640,4426,411,8066,0.7800644681378627,0.5419933152428927,0.9087912087912088,0.6741979213737008,0.0,0.799613246313754,0.9119804400977995,0.0,0.8507136427928507,0.7752663029358274,0.0,3640,4426,0,119,1.0,0.3333333333333333,0.0,0.0,1.0,0.0,0.0,1.0,0.0,0.0,1.0,0,0,119,292,0.14726027397260275,0.08557213930348258,0.0,0.0,0.14726027397260275,0.0,0.0,1.0,0.0,0.0,0.25671641791044775,0,0,292,8185,0.7832620647525962,0.6306339111460585,0.9087912087912088,0.6741979213737008,1.0,0.799613246313754,0.9119804400977995,0.15335051546391754,0.8507136427928507,0.7752663029358274,0.2659217877094972,3640,4426,119,0.0814530126456732,0.39416058394160586,1.071399498159185
simple_pc1_gm_gate_t254,score_dual,0.01,pc1__ge,-6.099036591134506,218,8477,0.7611183201604341,0.6206181636164457,0.9087912087912088,0.6741979213737008,0.38929440389294406,0.7622119815668202,0.8947526236881559,0.19950124688279303,0.8290726817042606,0.7689730704806081,0.26380873866446825,3640,4426,411,8066,0.7800644681378627,0.5414474260983901,0.9087912087912088,0.6741979213737008,0.0,0.7967244701348748,0.9119804400977995,0.0,0.8490759753593429,0.7752663029358274,0.0,3640,4426,0,119,1.0,0.3333333333333333,0.0,0.0,1.0,0.0,0.0,1.0,0.0,0.0,1.0,0,0,119,292,0.1404109589041096,0.08208208208208208,0.0,0.0,0.1404109589041096,0.0,0.0,1.0,0.0,0.0,0.24624624624624625,0,0,292,8185,0.7832620647525962,0.6315989412499053,0.9087912087912088,0.6741979213737008,1.0,0.7967244701348748,0.9119804400977995,0.15637319316688567,0.8490759753593429,0.7752663029358274,0.27045454545454545,3640,4426,119,0.07959335482271263,0.38929440389294406,1.0684330053585809
simple_pc1_gm_gate_t254,score_all_max,0.01,pc1__ge,-6.099036591134506,218,8477,0.7611183201604341,0.6206181636164457,0.9087912087912088,0.6741979213737008,0.38929440389294406,0.7622119815668202,0.8947526236881559,0.19950124688279303,0.8290726817042606,0.7689730704806081,0.26380873866446825,3640,4426,411,8066,0.7800644681378627,0.5414474260983901,0.9087912087912088,0.6741979213737008,0.0,0.7967244701348748,0.9119804400977995,0.0,0.8490759753593429,0.7752663029358274,0.0,3640,4426,0,119,1.0,0.3333333333333333,0.0,0.0,1.0,0.0,0.0,1.0,0.0,0.0,1.0,0,0,119,292,0.1404109589041096,0.08208208208208208,0.0,0.0,0.1404109589041096,0.0,0.0,1.0,0.0,0.0,0.24624624624624625,0,0,292,8185,0.7832620647525962,0.6315989412499053,0.9087912087912088,0.6741979213737008,1.0,0.7967244701348748,0.9119804400977995,0.15637319316688567,0.8490759753593429,0.7752663029358274,0.27045454545454545,3640,4426,119,0.07959335482271263,0.38929440389294406,1.0684330053585809
simple_pc1_gm_gate_t254,score_core,0.01,pc1__ge,-6.099036591134506,218,8477,0.7611183201604341,0.6206181636164457,0.9087912087912088,0.6741979213737008,0.38929440389294406,0.7622119815668202,0.8947526236881559,0.19950124688279303,0.8290726817042606,0.7689730704806081,0.26380873866446825,3640,4426,411,8066,0.7800644681378627,0.5414474260983901,0.9087912087912088,0.6741979213737008,0.0,0.7967244701348748,0.9119804400977995,0.0,0.8490759753593429,0.7752663029358274,0.0,3640,4426,0,119,1.0,0.3333333333333333,0.0,0.0,1.0,0.0,0.0,1.0,0.0,0.0,1.0,0,0,119,292,0.1404109589041096,0.08208208208208208,0.0,0.0,0.1404109589041096,0.0,0.0,1.0,0.0,0.0,0.24624624624624625,0,0,292,8185,0.7832620647525962,0.6315989412499053,0.9087912087912088,0.6741979213737008,1.0,0.7967244701348748,0.9119804400977995,0.15637319316688567,0.8490759753593429,0.7752663029358274,0.27045454545454545,3640,4426,119,0.07959335482271263,0.38929440389294406,1.0684330053585809
simple_pc1_gm_gate_t254,score_outlier,0.01,pc1__ge,-6.099036591134506,218,8477,0.7611183201604341,0.6206181636164457,0.9087912087912088,0.6741979213737008,0.38929440389294406,0.7622119815668202,0.8947526236881559,0.19950124688279303,0.8290726817042606,0.7689730704806081,0.26380873866446825,3640,4426,411,8066,0.7800644681378627,0.5414474260983901,0.9087912087912088,0.6741979213737008,0.0,0.7967244701348748,0.9119804400977995,0.0,0.8490759753593429,0.7752663029358274,0.0,3640,4426,0,119,1.0,0.3333333333333333,0.0,0.0,1.0,0.0,0.0,1.0,0.0,0.0,1.0,0,0,119,292,0.1404109589041096,0.08208208208208208,0.0,0.0,0.1404109589041096,0.0,0.0,1.0,0.0,0.0,0.24624624624624625,0,0,292,8185,0.7832620647525962,0.6315989412499053,0.9087912087912088,0.6741979213737008,1.0,0.7967244701348748,0.9119804400977995,0.15637319316688567,0.8490759753593429,0.7752663029358274,0.27045454545454545,3640,4426,119,0.07959335482271263,0.38929440389294406,1.0684330053585809
simple_pc1_gm_gate_t254,score_dual,0.02,pc3__le,2.1506591515994145,153,8477,0.7661908694113484,0.6251190728959845,0.9096153846153846,0.684139177586986,0.3795620437956204,0.76010101010101,0.8947990543735225,0.21166892808683854,0.8281640820410205,0.775416133162612,0.27177700348432055,3640,4426,411,8066,0.7858913959831391,0.5434126451468114,0.9096153846153846,0.684139177586986,0.0,0.7945764338852892,0.9125979505726342,0.0,0.8482131420520046,0.7820247933884298,0.0,3640,4426,0,119,1.0,0.3333333333333333,0.0,0.0,1.0,0.0,0.0,1.0,0.0,0.0,1.0,0,0,119,292,0.1267123287671233,0.07497467071935157,0.0,0.0,0.1267123287671233,0.0,0.0,1.0,0.0,0.0,0.22492401215805471,0,0,292,8185,0.7890042761148442,0.6402787420129084,0.9096153846153846,0.684139177586986,1.0,0.7945764338852892,0.9125979505726342,0.17,0.8482131420520046,0.7820247933884298,0.2905982905982906,3640,4426,119,0.07203074634267295,0.3795620437956204,1.068044434054884
simple_pc1_gm_gate_t254,score_all_max,0.02,pc3__le,2.1506591515994145,153,8477,0.7661908694113484,0.6251190728959845,0.9096153846153846,0.684139177586986,0.3795620437956204,0.76010101010101,0.8947990543735225,0.21166892808683854,0.8281640820410205,0.775416133162612,0.27177700348432055,3640,4426,411,8066,0.7858913959831391,0.5434126451468114,0.9096153846153846,0.684139177586986,0.0,0.7945764338852892,0.9125979505726342,0.0,0.8482131420520046,0.7820247933884298,0.0,3640,4426,0,119,1.0,0.3333333333333333,0.0,0.0,1.0,0.0,0.0,1.0,0.0,0.0,1.0,0,0,119,292,0.1267123287671233,0.07497467071935157,0.0,0.0,0.1267123287671233,0.0,0.0,1.0,0.0,0.0,0.22492401215805471,0,0,292,8185,0.7890042761148442,0.6402787420129084,0.9096153846153846,0.684139177586986,1.0,0.7945764338852892,0.9125979505726342,0.17,0.8482131420520046,0.7820247933884298,0.2905982905982906,3640,4426,119,0.07203074634267295,0.3795620437956204,1.068044434054884
simple_pc1_gm_gate_t254,score_core,0.02,pc3__le,2.1506591515994145,153,8477,0.7661908694113484,0.6251190728959845,0.9096153846153846,0.684139177586986,0.3795620437956204,0.76010101010101,0.8947990543735225,0.21166892808683854,0.8281640820410205,0.775416133162612,0.27177700348432055,3640,4426,411,8066,0.7858913959831391,0.5434126451468114,0.9096153846153846,0.684139177586986,0.0,0.7945764338852892,0.9125979505726342,0.0,0.8482131420520046,0.7820247933884298,0.0,3640,4426,0,119,1.0,0.3333333333333333,0.0,0.0,1.0,0.0,0.0,1.0,0.0,0.0,1.0,0,0,119,292,0.1267123287671233,0.07497467071935157,0.0,0.0,0.1267123287671233,0.0,0.0,1.0,0.0,0.0,0.22492401215805471,0,0,292,8185,0.7890042761148442,0.6402787420129084,0.9096153846153846,0.684139177586986,1.0,0.7945764338852892,0.9125979505726342,0.17,0.8482131420520046,0.7820247933884298,0.2905982905982906,3640,4426,119,0.07203074634267295,0.3795620437956204,1.068044434054884
simple_pc1_gm_gate_t254,score_outlier,0.02,pc3__le,2.1506591515994145,153,8477,0.7661908694113484,0.6251190728959845,0.9096153846153846,0.684139177586986,0.3795620437956204,0.76010101010101,0.8947990543735225,0.21166892808683854,0.8281640820410205,0.775416133162612,0.27177700348432055,3640,4426,411,8066,0.7858913959831391,0.5434126451468114,0.9096153846153846,0.684139177586986,0.0,0.7945764338852892,0.9125979505726342,0.0,0.8482131420520046,0.7820247933884298,0.0,3640,4426,0,119,1.0,0.3333333333333333,0.0,0.0,1.0,0.0,0.0,1.0,0.0,0.0,1.0,0,0,119,292,0.1267123287671233,0.07497467071935157,0.0,0.0,0.1267123287671233,0.0,0.0,1.0,0.0,0.0,0.22492401215805471,0,0,292,8185,0.7890042761148442,0.6402787420129084,0.9096153846153846,0.684139177586986,1.0,0.7945764338852892,0.9125979505726342,0.17,0.8482131420520046,0.7820247933884298,0.2905982905982906,3640,4426,119,0.07203074634267295,0.3795620437956204,1.068044434054884
simple_pc1_gm_gate_t254,score_dual,0.01,pc3__ge,-2.4479177605053817,204,8477,0.7611183201604341,0.620215707366463,0.9093406593406593,0.6741979213737008,0.3844282238442822,0.7602204869085898,0.8947526236881559,0.20050761421319796,0.8281210908181136,0.7689730704806081,0.2635529608006672,3640,4426,411,8066,0.7803124225142574,0.5411830782552194,0.9093406593406593,0.6741979213737008,0.0,0.7949087415946205,0.9119804400977995,0.0,0.8482829318298308,0.7752663029358274,0.0,3640,4426,0,119,1.0,0.3333333333333333,0.0,0.0,1.0,0.0,0.0,1.0,0.0,0.0,1.0,0,0,119,292,0.13356164383561644,0.07854984894259819,0.0,0.0,0.13356164383561644,0.0,0.0,1.0,0.0,0.0,0.23564954682779457,0,0,292,8185,0.7835064141722663,0.632580927717585,0.9093406593406593,0.6741979213737008,1.0,0.7949087415946205,0.9119804400977995,0.1588785046728972,0.8482829318298308,0.7752663029358274,0.27419354838709675,3640,4426,119,0.07810562856434417,0.3844282238442822,1.0657024450812753
simple_pc1_gm_gate_t254,score_all_max,0.01,pc3__ge,-2.4479177605053817,204,8477,0.7611183201604341,0.620215707366463,0.9093406593406593,0.6741979213737008,0.3844282238442822,0.7602204869085898,0.8947526236881559,0.20050761421319796,0.8281210908181136,0.7689730704806081,0.2635529608006672,3640,4426,411,8066,0.7803124225142574,0.5411830782552194,0.9093406593406593,0.6741979213737008,0.0,0.7949087415946205,0.9119804400977995,0.0,0.8482829318298308,0.7752663029358274,0.0,3640,4426,0,119,1.0,0.3333333333333333,0.0,0.0,1.0,0.0,0.0,1.0,0.0,0.0,1.0,0,0,119,292,0.13356164383561644,0.07854984894259819,0.0,0.0,0.13356164383561644,0.0,0.0,1.0,0.0,0.0,0.23564954682779457,0,0,292,8185,0.7835064141722663,0.632580927717585,0.9093406593406593,0.6741979213737008,1.0,0.7949087415946205,0.9119804400977995,0.1588785046728972,0.8482829318298308,0.7752663029358274,0.27419354838709675,3640,4426,119,0.07810562856434417,0.3844282238442822,1.0657024450812753
simple_pc1_gm_gate_t254,score_core,0.01,pc3__ge,-2.4479177605053817,204,8477,0.7611183201604341,0.620215707366463,0.9093406593406593,0.6741979213737008,0.3844282238442822,0.7602204869085898,0.8947526236881559,0.20050761421319796,0.8281210908181136,0.7689730704806081,0.2635529608006672,3640,4426,411,8066,0.7803124225142574,0.5411830782552194,0.9093406593406593,0.6741979213737008,0.0,0.7949087415946205,0.9119804400977995,0.0,0.8482829318298308,0.7752663029358274,0.0,3640,4426,0,119,1.0,0.3333333333333333,0.0,0.0,1.0,0.0,0.0,1.0,0.0,0.0,1.0,0,0,119,292,0.13356164383561644,0.07854984894259819,0.0,0.0,0.13356164383561644,0.0,0.0,1.0,0.0,0.0,0.23564954682779457,0,0,292,8185,0.7835064141722663,0.632580927717585,0.9093406593406593,0.6741979213737008,1.0,0.7949087415946205,0.9119804400977995,0.1588785046728972,0.8482829318298308,0.7752663029358274,0.27419354838709675,3640,4426,119,0.07810562856434417,0.3844282238442822,1.0657024450812753
simple_pc1_gm_gate_t254,score_outlier,0.01,pc3__ge,-2.4479177605053817,204,8477,0.7611183201604341,0.620215707366463,0.9093406593406593,0.6741979213737008,0.3844282238442822,0.7602204869085898,0.8947526236881559,0.20050761421319796,0.8281210908181136,0.7689730704806081,0.2635529608006672,3640,4426,411,8066,0.7803124225142574,0.5411830782552194,0.9093406593406593,0.6741979213737008,0.0,0.7949087415946205,0.9119804400977995,0.0,0.8482829318298308,0.7752663029358274,0.0,3640,4426,0,119,1.0,0.3333333333333333,0.0,0.0,1.0,0.0,0.0,1.0,0.0,0.0,1.0,0,0,119,292,0.13356164383561644,0.07854984894259819,0.0,0.0,0.13356164383561644,0.0,0.0,1.0,0.0,0.0,0.23564954682779457,0,0,292,8185,0.7835064141722663,0.632580927717585,0.9093406593406593,0.6741979213737008,1.0,0.7949087415946205,0.9119804400977995,0.1588785046728972,0.8482829318298308,0.7752663029358274,0.27419354838709675,3640,4426,119,0.07810562856434417,0.3844282238442822,1.0657024450812753
simple_pc1_gm_gate_t254,score_dual,0.03,pc3__le,2.1506591515994145,128,8477,0.7665447681962959,0.625516648979598,0.9101648351648352,0.6848169905106191,0.3746958637469586,0.7570840950639853,0.8943641192092062,0.21629213483146068,0.8265968063872255,0.7756877799104287,0.2742653606411398,3640,4426,411,8066,0.786511281924126,0.5430201399453779,0.9101648351648352,0.6848169905106191,0.0,0.7914476827520306,0.9124021673690548,0.0,0.8466649629440327,0.7823954568921012,0.0,3640,4426,0,119,1.0,0.3333333333333333,0.0,0.0,1.0,0.0,0.0,1.0,0.0,0.0,1.0,0,0,119,292,0.11986301369863013,0.07135575942915393,0.0,0.0,0.11986301369863013,0.0,0.0,1.0,0.0,0.0,0.21406727828746178,0,0,292,8185,0.7896151496640196,0.6426851315701686,0.9101648351648352,0.6848169905106191,1.0,0.7914476827520306,0.9124021673690548,0.1757754800590842,0.8466649629440327,0.7823954568921012,0.2989949748743719,3640,4426,119,0.0691792710141334,0.3746958637469586,1.0656677725625259
simple_pc1_gm_gate_t254,score_all_max,0.03,pc3__le,2.1506591515994145,128,8477,0.7665447681962959,0.625516648979598,0.9101648351648352,0.6848169905106191,0.3746958637469586,0.7570840950639853,0.8943641192092062,0.21629213483146068,0.8265968063872255,0.7756877799104287,0.2742653606411398,3640,4426,411,8066,0.786511281924126,0.5430201399453779,0.9101648351648352,0.6848169905106191,0.0,0.7914476827520306,0.9124021673690548,0.0,0.8466649629440327,0.7823954568921012,0.0,3640,4426,0,119,1.0,0.3333333333333333,0.0,0.0,1.0,0.0,0.0,1.0,0.0,0.0,1.0,0,0,119,292,0.11986301369863013,0.07135575942915393,0.0,0.0,0.11986301369863013,0.0,0.0,1.0,0.0,0.0,0.21406727828746178,0,0,292,8185,0.7896151496640196,0.6426851315701686,0.9101648351648352,0.6848169905106191,1.0,0.7914476827520306,0.9124021673690548,0.1757754800590842,0.8466649629440327,0.7823954568921012,0.2989949748743719,3640,4426,119,0.0691792710141334,0.3746958637469586,1.0656677725625259
simple_pc1_gm_gate_t254,score_core,0.03,pc3__le,2.1506591515994145,128,8477,0.7665447681962959,0.625516648979598,0.9101648351648352,0.6848169905106191,0.3746958637469586,0.7570840950639853,0.8943641192092062,0.21629213483146068,0.8265968063872255,0.7756877799104287,0.2742653606411398,3640,4426,411,8066,0.786511281924126,0.5430201399453779,0.9101648351648352,0.6848169905106191,0.0,0.7914476827520306,0.9124021673690548,0.0,0.8466649629440327,0.7823954568921012,0.0,3640,4426,0,119,1.0,0.3333333333333333,0.0,0.0,1.0,0.0,0.0,1.0,0.0,0.0,1.0,0,0,119,292,0.11986301369863013,0.07135575942915393,0.0,0.0,0.11986301369863013,0.0,0.0,1.0,0.0,0.0,0.21406727828746178,0,0,292,8185,0.7896151496640196,0.6426851315701686,0.9101648351648352,0.6848169905106191,1.0,0.7914476827520306,0.9124021673690548,0.1757754800590842,0.8466649629440327,0.7823954568921012,0.2989949748743719,3640,4426,119,0.0691792710141334,0.3746958637469586,1.0656677725625259
simple_pc1_gm_gate_t254,score_outlier,0.03,pc3__le,2.1506591515994145,128,8477,0.7665447681962959,0.625516648979598,0.9101648351648352,0.6848169905106191,0.3746958637469586,0.7570840950639853,0.8943641192092062,0.21629213483146068,0.8265968063872255,0.7756877799104287,0.2742653606411398,3640,4426,411,8066,0.786511281924126,0.5430201399453779,0.9101648351648352,0.6848169905106191,0.0,0.7914476827520306,0.9124021673690548,0.0,0.8466649629440327,0.7823954568921012,0.0,3640,4426,0,119,1.0,0.3333333333333333,0.0,0.0,1.0,0.0,0.0,1.0,0.0,0.0,1.0,0,0,119,292,0.11986301369863013,0.07135575942915393,0.0,0.0,0.11986301369863013,0.0,0.0,1.0,0.0,0.0,0.21406727828746178,0,0,292,8185,0.7896151496640196,0.6426851315701686,0.9101648351648352,0.6848169905106191,1.0,0.7914476827520306,0.9124021673690548,0.1757754800590842,0.8466649629440327,0.7823954568921012,0.2989949748743719,3640,4426,119,0.0691792710141334,0.3746958637469586,1.0656677725625259
simple_pc1_gm_gate_t254,score_dual,0.02,pc3__le,3.281193089810729,175,8477,0.7635956116550666,0.6222625351367689,0.9096153846153846,0.6791685494803434,0.3795620437956204,0.76010101010101,0.8941106484235574,0.20553359683794467,0.8281640820410205,0.7719568567026194,0.26666666666666666,3640,4426,411,8066,0.7831638978427969,0.5422559735355944,0.9096153846153846,0.6791685494803434,0.0,0.7945764338852892,0.9120145631067961,0.0,0.8482131420520046,0.7785547785547785,0.0,3640,4426,0,119,1.0,0.3333333333333333,0.0,0.0,1.0,0.0,0.0,1.0,0.0,0.0,1.0,0,0,119,292,0.1267123287671233,0.07497467071935157,0.0,0.0,0.1267123287671233,0.0,0.0,1.0,0.0,0.0,0.22492401215805471,0,0,292,8185,0.7863164324984728,0.6365881178082856,0.9096153846153846,0.6791685494803434,1.0,0.7945764338852892,0.9120145631067961,0.16481994459833796,0.8482131420520046,0.7785547785547785,0.28299643281807374,3640,4426,119,0.07475824448301513,0.3795620437956204,1.0654491762986023
simple_pc1_gm_gate_t254,score_all_max,0.02,pc3__le,3.281193089810729,175,8477,0.7635956116550666,0.6222625351367689,0.9096153846153846,0.6791685494803434,0.3795620437956204,0.76010101010101,0.8941106484235574,0.20553359683794467,0.8281640820410205,0.7719568567026194,0.26666666666666666,3640,4426,411,8066,0.7831638978427969,0.5422559735355944,0.9096153846153846,0.6791685494803434,0.0,0.7945764338852892,0.9120145631067961,0.0,0.8482131420520046,0.7785547785547785,0.0,3640,4426,0,119,1.0,0.3333333333333333,0.0,0.0,1.0,0.0,0.0,1.0,0.0,0.0,1.0,0,0,119,292,0.1267123287671233,0.07497467071935157,0.0,0.0,0.1267123287671233,0.0,0.0,1.0,0.0,0.0,0.22492401215805471,0,0,292,8185,0.7863164324984728,0.6365881178082856,0.9096153846153846,0.6791685494803434,1.0,0.7945764338852892,0.9120145631067961,0.16481994459833796,0.8482131420520046,0.7785547785547785,0.28299643281807374,3640,4426,119,0.07475824448301513,0.3795620437956204,1.0654491762986023
simple_pc1_gm_gate_t254,score_core,0.02,pc3__le,3.281193089810729,175,8477,0.7635956116550666,0.6222625351367689,0.9096153846153846,0.6791685494803434,0.3795620437956204,0.76010101010101,0.8941106484235574,0.20553359683794467,0.8281640820410205,0.7719568567026194,0.26666666666666666,3640,4426,411,8066,0.7831638978427969,0.5422559735355944,0.9096153846153846,0.6791685494803434,0.0,0.7945764338852892,0.9120145631067961,0.0,0.8482131420520046,0.7785547785547785,0.0,3640,4426,0,119,1.0,0.3333333333333333,0.0,0.0,1.0,0.0,0.0,1.0,0.0,0.0,1.0,0,0,119,292,0.1267123287671233,0.07497467071935157,0.0,0.0,0.1267123287671233,0.0,0.0,1.0,0.0,0.0,0.22492401215805471,0,0,292,8185,0.7863164324984728,0.6365881178082856,0.9096153846153846,0.6791685494803434,1.0,0.7945764338852892,0.9120145631067961,0.16481994459833796,0.8482131420520046,0.7785547785547785,0.28299643281807374,3640,4426,119,0.07475824448301513,0.3795620437956204,1.0654491762986023
simple_pc1_gm_gate_t254,score_outlier,0.02,pc3__le,3.281193089810729,175,8477,0.7635956116550666,0.6222625351367689,0.9096153846153846,0.6791685494803434,0.3795620437956204,0.76010101010101,0.8941106484235574,0.20553359683794467,0.8281640820410205,0.7719568567026194,0.26666666666666666,3640,4426,411,8066,0.7831638978427969,0.5422559735355944,0.9096153846153846,0.6791685494803434,0.0,0.7945764338852892,0.9120145631067961,0.0,0.8482131420520046,0.7785547785547785,0.0,3640,4426,0,119,1.0,0.3333333333333333,0.0,0.0,1.0,0.0,0.0,1.0,0.0,0.0,1.0,0,0,119,292,0.1267123287671233,0.07497467071935157,0.0,0.0,0.1267123287671233,0.0,0.0,1.0,0.0,0.0,0.22492401215805471,0,0,292,8185,0.7863164324984728,0.6365881178082856,0.9096153846153846,0.6791685494803434,1.0,0.7945764338852892,0.9120145631067961,0.16481994459833796,0.8482131420520046,0.7785547785547785,0.28299643281807374,3640,4426,119,0.07475824448301513,0.3795620437956204,1.0654491762986023
simple_pc1_gm_gate_t254,score_dual,0.02,none,,176,8477,0.7634776453934174,0.6221340585168557,0.9096153846153846,0.6789426118391324,0.3795620437956204,0.76010101010101,0.894079143112169,0.20526315789473684,0.8281640820410205,0.7717991524335431,0.2664389410760034,3640,4426,411,8066,0.7830399206545996,0.5422032409352643,0.9096153846153846,0.6789426118391324,0.0,0.7945764338852892,0.9119878603945372,0.0,0.8482131420520046,0.7783965807537884,0.0,3640,4426,0,119,1.0,0.3333333333333333,0.0,0.0,1.0,0.0,0.0,1.0,0.0,0.0,1.0,0,0,119,292,0.1267123287671233,0.07497467071935157,0.0,0.0,0.1267123287671233,0.0,0.0,1.0,0.0,0.0,0.22492401215805471,0,0,292,8185,0.7861942577886377,0.6364233517824536,0.9096153846153846,0.6789426118391324,1.0,0.7945764338852892,0.9119878603945372,0.16459197786998617,0.8482131420520046,0.7783965807537884,0.2826603325415677,3640,4426,119,0.0748822216712125,0.3795620437956204,1.0653312100369532
simple_pc1_gm_gate_t254,score_dual,0.02,qrs_visibility__le,0.2800807397384144,176,8477,0.7634776453934174,0.6221340585168557,0.9096153846153846,0.6789426118391324,0.3795620437956204,0.76010101010101,0.894079143112169,0.20526315789473684,0.8281640820410205,0.7717991524335431,0.2664389410760034,3640,4426,411,8066,0.7830399206545996,0.5422032409352643,0.9096153846153846,0.6789426118391324,0.0,0.7945764338852892,0.9119878603945372,0.0,0.8482131420520046,0.7783965807537884,0.0,3640,4426,0,119,1.0,0.3333333333333333,0.0,0.0,1.0,0.0,0.0,1.0,0.0,0.0,1.0,0,0,119,292,0.1267123287671233,0.07497467071935157,0.0,0.0,0.1267123287671233,0.0,0.0,1.0,0.0,0.0,0.22492401215805471,0,0,292,8185,0.7861942577886377,0.6364233517824536,0.9096153846153846,0.6789426118391324,1.0,0.7945764338852892,0.9119878603945372,0.16459197786998617,0.8482131420520046,0.7783965807537884,0.2826603325415677,3640,4426,119,0.0748822216712125,0.3795620437956204,1.0653312100369532
simple_pc1_gm_gate_t254,score_dual,0.02,qrs_visibility__le,0.3732307518330272,176,8477,0.7634776453934174,0.6221340585168557,0.9096153846153846,0.6789426118391324,0.3795620437956204,0.76010101010101,0.894079143112169,0.20526315789473684,0.8281640820410205,0.7717991524335431,0.2664389410760034,3640,4426,411,8066,0.7830399206545996,0.5422032409352643,0.9096153846153846,0.6789426118391324,0.0,0.7945764338852892,0.9119878603945372,0.0,0.8482131420520046,0.7783965807537884,0.0,3640,4426,0,119,1.0,0.3333333333333333,0.0,0.0,1.0,0.0,0.0,1.0,0.0,0.0,1.0,0,0,119,292,0.1267123287671233,0.07497467071935157,0.0,0.0,0.1267123287671233,0.0,0.0,1.0,0.0,0.0,0.22492401215805471,0,0,292,8185,0.7861942577886377,0.6364233517824536,0.9096153846153846,0.6789426118391324,1.0,0.7945764338852892,0.9119878603945372,0.16459197786998617,0.8482131420520046,0.7783965807537884,0.2826603325415677,3640,4426,119,0.0748822216712125,0.3795620437956204,1.0653312100369532
simple_pc1_gm_gate_t254,score_all_max,0.02,none,,176,8477,0.7634776453934174,0.6221340585168557,0.9096153846153846,0.6789426118391324,0.3795620437956204,0.76010101010101,0.894079143112169,0.20526315789473684,0.8281640820410205,0.7717991524335431,0.2664389410760034,3640,4426,411,8066,0.7830399206545996,0.5422032409352643,0.9096153846153846,0.6789426118391324,0.0,0.7945764338852892,0.9119878603945372,0.0,0.8482131420520046,0.7783965807537884,0.0,3640,4426,0,119,1.0,0.3333333333333333,0.0,0.0,1.0,0.0,0.0,1.0,0.0,0.0,1.0,0,0,119,292,0.1267123287671233,0.07497467071935157,0.0,0.0,0.1267123287671233,0.0,0.0,1.0,0.0,0.0,0.22492401215805471,0,0,292,8185,0.7861942577886377,0.6364233517824536,0.9096153846153846,0.6789426118391324,1.0,0.7945764338852892,0.9119878603945372,0.16459197786998617,0.8482131420520046,0.7783965807537884,0.2826603325415677,3640,4426,119,0.0748822216712125,0.3795620437956204,1.0653312100369532
simple_pc1_gm_gate_t254,score_all_max,0.02,qrs_visibility__le,0.2800807397384144,176,8477,0.7634776453934174,0.6221340585168557,0.9096153846153846,0.6789426118391324,0.3795620437956204,0.76010101010101,0.894079143112169,0.20526315789473684,0.8281640820410205,0.7717991524335431,0.2664389410760034,3640,4426,411,8066,0.7830399206545996,0.5422032409352643,0.9096153846153846,0.6789426118391324,0.0,0.7945764338852892,0.9119878603945372,0.0,0.8482131420520046,0.7783965807537884,0.0,3640,4426,0,119,1.0,0.3333333333333333,0.0,0.0,1.0,0.0,0.0,1.0,0.0,0.0,1.0,0,0,119,292,0.1267123287671233,0.07497467071935157,0.0,0.0,0.1267123287671233,0.0,0.0,1.0,0.0,0.0,0.22492401215805471,0,0,292,8185,0.7861942577886377,0.6364233517824536,0.9096153846153846,0.6789426118391324,1.0,0.7945764338852892,0.9119878603945372,0.16459197786998617,0.8482131420520046,0.7783965807537884,0.2826603325415677,3640,4426,119,0.0748822216712125,0.3795620437956204,1.0653312100369532
simple_pc1_gm_gate_t254,score_all_max,0.02,qrs_visibility__le,0.3732307518330272,176,8477,0.7634776453934174,0.6221340585168557,0.9096153846153846,0.6789426118391324,0.3795620437956204,0.76010101010101,0.894079143112169,0.20526315789473684,0.8281640820410205,0.7717991524335431,0.2664389410760034,3640,4426,411,8066,0.7830399206545996,0.5422032409352643,0.9096153846153846,0.6789426118391324,0.0,0.7945764338852892,0.9119878603945372,0.0,0.8482131420520046,0.7783965807537884,0.0,3640,4426,0,119,1.0,0.3333333333333333,0.0,0.0,1.0,0.0,0.0,1.0,0.0,0.0,1.0,0,0,119,292,0.1267123287671233,0.07497467071935157,0.0,0.0,0.1267123287671233,0.0,0.0,1.0,0.0,0.0,0.22492401215805471,0,0,292,8185,0.7861942577886377,0.6364233517824536,0.9096153846153846,0.6789426118391324,1.0,0.7945764338852892,0.9119878603945372,0.16459197786998617,0.8482131420520046,0.7783965807537884,0.2826603325415677,3640,4426,119,0.0748822216712125,0.3795620437956204,1.0653312100369532
simple_pc1_gm_gate_t254,score_core,0.02,none,,176,8477,0.7634776453934174,0.6221340585168557,0.9096153846153846,0.6789426118391324,0.3795620437956204,0.76010101010101,0.894079143112169,0.20526315789473684,0.8281640820410205,0.7717991524335431,0.2664389410760034,3640,4426,411,8066,0.7830399206545996,0.5422032409352643,0.9096153846153846,0.6789426118391324,0.0,0.7945764338852892,0.9119878603945372,0.0,0.8482131420520046,0.7783965807537884,0.0,3640,4426,0,119,1.0,0.3333333333333333,0.0,0.0,1.0,0.0,0.0,1.0,0.0,0.0,1.0,0,0,119,292,0.1267123287671233,0.07497467071935157,0.0,0.0,0.1267123287671233,0.0,0.0,1.0,0.0,0.0,0.22492401215805471,0,0,292,8185,0.7861942577886377,0.6364233517824536,0.9096153846153846,0.6789426118391324,1.0,0.7945764338852892,0.9119878603945372,0.16459197786998617,0.8482131420520046,0.7783965807537884,0.2826603325415677,3640,4426,119,0.0748822216712125,0.3795620437956204,1.0653312100369532
simple_pc1_gm_gate_t254,score_core,0.02,qrs_visibility__le,0.2800807397384144,176,8477,0.7634776453934174,0.6221340585168557,0.9096153846153846,0.6789426118391324,0.3795620437956204,0.76010101010101,0.894079143112169,0.20526315789473684,0.8281640820410205,0.7717991524335431,0.2664389410760034,3640,4426,411,8066,0.7830399206545996,0.5422032409352643,0.9096153846153846,0.6789426118391324,0.0,0.7945764338852892,0.9119878603945372,0.0,0.8482131420520046,0.7783965807537884,0.0,3640,4426,0,119,1.0,0.3333333333333333,0.0,0.0,1.0,0.0,0.0,1.0,0.0,0.0,1.0,0,0,119,292,0.1267123287671233,0.07497467071935157,0.0,0.0,0.1267123287671233,0.0,0.0,1.0,0.0,0.0,0.22492401215805471,0,0,292,8185,0.7861942577886377,0.6364233517824536,0.9096153846153846,0.6789426118391324,1.0,0.7945764338852892,0.9119878603945372,0.16459197786998617,0.8482131420520046,0.7783965807537884,0.2826603325415677,3640,4426,119,0.0748822216712125,0.3795620437956204,1.0653312100369532
simple_pc1_gm_gate_t254,score_core,0.02,qrs_visibility__le,0.3732307518330272,176,8477,0.7634776453934174,0.6221340585168557,0.9096153846153846,0.6789426118391324,0.3795620437956204,0.76010101010101,0.894079143112169,0.20526315789473684,0.8281640820410205,0.7717991524335431,0.2664389410760034,3640,4426,411,8066,0.7830399206545996,0.5422032409352643,0.9096153846153846,0.6789426118391324,0.0,0.7945764338852892,0.9119878603945372,0.0,0.8482131420520046,0.7783965807537884,0.0,3640,4426,0,119,1.0,0.3333333333333333,0.0,0.0,1.0,0.0,0.0,1.0,0.0,0.0,1.0,0,0,119,292,0.1267123287671233,0.07497467071935157,0.0,0.0,0.1267123287671233,0.0,0.0,1.0,0.0,0.0,0.22492401215805471,0,0,292,8185,0.7861942577886377,0.6364233517824536,0.9096153846153846,0.6789426118391324,1.0,0.7945764338852892,0.9119878603945372,0.16459197786998617,0.8482131420520046,0.7783965807537884,0.2826603325415677,3640,4426,119,0.0748822216712125,0.3795620437956204,1.0653312100369532
simple_pc1_gm_gate_t254,score_outlier,0.02,none,,176,8477,0.7634776453934174,0.6221340585168557,0.9096153846153846,0.6789426118391324,0.3795620437956204,0.76010101010101,0.894079143112169,0.20526315789473684,0.8281640820410205,0.7717991524335431,0.2664389410760034,3640,4426,411,8066,0.7830399206545996,0.5422032409352643,0.9096153846153846,0.6789426118391324,0.0,0.7945764338852892,0.9119878603945372,0.0,0.8482131420520046,0.7783965807537884,0.0,3640,4426,0,119,1.0,0.3333333333333333,0.0,0.0,1.0,0.0,0.0,1.0,0.0,0.0,1.0,0,0,119,292,0.1267123287671233,0.07497467071935157,0.0,0.0,0.1267123287671233,0.0,0.0,1.0,0.0,0.0,0.22492401215805471,0,0,292,8185,0.7861942577886377,0.6364233517824536,0.9096153846153846,0.6789426118391324,1.0,0.7945764338852892,0.9119878603945372,0.16459197786998617,0.8482131420520046,0.7783965807537884,0.2826603325415677,3640,4426,119,0.0748822216712125,0.3795620437956204,1.0653312100369532
simple_pc1_gm_gate_t254,score_outlier,0.02,qrs_visibility__le,0.2800807397384144,176,8477,0.7634776453934174,0.6221340585168557,0.9096153846153846,0.6789426118391324,0.3795620437956204,0.76010101010101,0.894079143112169,0.20526315789473684,0.8281640820410205,0.7717991524335431,0.2664389410760034,3640,4426,411,8066,0.7830399206545996,0.5422032409352643,0.9096153846153846,0.6789426118391324,0.0,0.7945764338852892,0.9119878603945372,0.0,0.8482131420520046,0.7783965807537884,0.0,3640,4426,0,119,1.0,0.3333333333333333,0.0,0.0,1.0,0.0,0.0,1.0,0.0,0.0,1.0,0,0,119,292,0.1267123287671233,0.07497467071935157,0.0,0.0,0.1267123287671233,0.0,0.0,1.0,0.0,0.0,0.22492401215805471,0,0,292,8185,0.7861942577886377,0.6364233517824536,0.9096153846153846,0.6789426118391324,1.0,0.7945764338852892,0.9119878603945372,0.16459197786998617,0.8482131420520046,0.7783965807537884,0.2826603325415677,3640,4426,119,0.0748822216712125,0.3795620437956204,1.0653312100369532
simple_pc1_gm_gate_t254,score_outlier,0.02,qrs_visibility__le,0.3732307518330272,176,8477,0.7634776453934174,0.6221340585168557,0.9096153846153846,0.6789426118391324,0.3795620437956204,0.76010101010101,0.894079143112169,0.20526315789473684,0.8281640820410205,0.7717991524335431,0.2664389410760034,3640,4426,411,8066,0.7830399206545996,0.5422032409352643,0.9096153846153846,0.6789426118391324,0.0,0.7945764338852892,0.9119878603945372,0.0,0.8482131420520046,0.7783965807537884,0.0,3640,4426,0,119,1.0,0.3333333333333333,0.0,0.0,1.0,0.0,0.0,1.0,0.0,0.0,1.0,0,0,119,292,0.1267123287671233,0.07497467071935157,0.0,0.0,0.1267123287671233,0.0,0.0,1.0,0.0,0.0,0.22492401215805471,0,0,292,8185,0.7861942577886377,0.6364233517824536,0.9096153846153846,0.6789426118391324,1.0,0.7945764338852892,0.9119878603945372,0.16459197786998617,0.8482131420520046,0.7783965807537884,0.2826603325415677,3640,4426,119,0.0748822216712125,0.3795620437956204,1.0653312100369532
simple_pc1_gm_gate_t254,score_dual,0.01,pc2__ge,-1.0634046292314407,232,8477,0.761000353898785,0.6195624305456572,0.9087912087912088,0.6741979213737008,0.38686131386861317,0.7652093453620171,0.8939484721390054,0.1948529411764706,0.8308426472435012,0.7686759402369913,0.2591687041564792,3640,4426,411,8066,0.7800644681378627,0.5419933152428927,0.9087912087912088,0.6741979213737008,0.0,0.799613246313754,0.9119804400977995,0.0,0.8507136427928507,0.7752663029358274,0.0,3640,4426,0,119,0.9747899159663865,0.32907801418439714,0.0,0.0,0.9747899159663865,0.0,0.0,1.0,0.0,0.0,0.9872340425531915,0,0,119,292,0.14726027397260275,0.08557213930348258,0.0,0.0,0.14726027397260275,0.0,0.0,1.0,0.0,0.0,0.25671641791044775,0,0,292,8185,0.782895540623091,0.6285892064144692,0.9087912087912088,0.6741979213737008,0.9747899159663865,0.799613246313754,0.9111450381679389,0.1500646830530401,0.8507136427928507,0.7749642903519024,0.2600896860986547,3640,4426,119,0.0814530126456732,0.38686131386861317,1.064709342243648
simple_pc1_gm_gate_t254,score_all_max,0.01,pc2__ge,-1.0634046292314407,232,8477,0.761000353898785,0.6195624305456572,0.9087912087912088,0.6741979213737008,0.38686131386861317,0.7652093453620171,0.8939484721390054,0.1948529411764706,0.8308426472435012,0.7686759402369913,0.2591687041564792,3640,4426,411,8066,0.7800644681378627,0.5419933152428927,0.9087912087912088,0.6741979213737008,0.0,0.799613246313754,0.9119804400977995,0.0,0.8507136427928507,0.7752663029358274,0.0,3640,4426,0,119,0.9747899159663865,0.32907801418439714,0.0,0.0,0.9747899159663865,0.0,0.0,1.0,0.0,0.0,0.9872340425531915,0,0,119,292,0.14726027397260275,0.08557213930348258,0.0,0.0,0.14726027397260275,0.0,0.0,1.0,0.0,0.0,0.25671641791044775,0,0,292,8185,0.782895540623091,0.6285892064144692,0.9087912087912088,0.6741979213737008,0.9747899159663865,0.799613246313754,0.9111450381679389,0.1500646830530401,0.8507136427928507,0.7749642903519024,0.2600896860986547,3640,4426,119,0.0814530126456732,0.38686131386861317,1.064709342243648
simple_pc1_gm_gate_t254,score_core,0.01,pc2__ge,-1.0634046292314407,232,8477,0.761000353898785,0.6195624305456572,0.9087912087912088,0.6741979213737008,0.38686131386861317,0.7652093453620171,0.8939484721390054,0.1948529411764706,0.8308426472435012,0.7686759402369913,0.2591687041564792,3640,4426,411,8066,0.7800644681378627,0.5419933152428927,0.9087912087912088,0.6741979213737008,0.0,0.799613246313754,0.9119804400977995,0.0,0.8507136427928507,0.7752663029358274,0.0,3640,4426,0,119,0.9747899159663865,0.32907801418439714,0.0,0.0,0.9747899159663865,0.0,0.0,1.0,0.0,0.0,0.9872340425531915,0,0,119,292,0.14726027397260275,0.08557213930348258,0.0,0.0,0.14726027397260275,0.0,0.0,1.0,0.0,0.0,0.25671641791044775,0,0,292,8185,0.782895540623091,0.6285892064144692,0.9087912087912088,0.6741979213737008,0.9747899159663865,0.799613246313754,0.9111450381679389,0.1500646830530401,0.8507136427928507,0.7749642903519024,0.2600896860986547,3640,4426,119,0.0814530126456732,0.38686131386861317,1.064709342243648
simple_pc1_gm_gate_t254,score_outlier,0.01,pc2__ge,-1.0634046292314407,232,8477,0.761000353898785,0.6195624305456572,0.9087912087912088,0.6741979213737008,0.38686131386861317,0.7652093453620171,0.8939484721390054,0.1948529411764706,0.8308426472435012,0.7686759402369913,0.2591687041564792,3640,4426,411,8066,0.7800644681378627,0.5419933152428927,0.9087912087912088,0.6741979213737008,0.0,0.799613246313754,0.9119804400977995,0.0,0.8507136427928507,0.7752663029358274,0.0,3640,4426,0,119,0.9747899159663865,0.32907801418439714,0.0,0.0,0.9747899159663865,0.0,0.0,1.0,0.0,0.0,0.9872340425531915,0,0,119,292,0.14726027397260275,0.08557213930348258,0.0,0.0,0.14726027397260275,0.0,0.0,1.0,0.0,0.0,0.25671641791044775,0,0,292,8185,0.782895540623091,0.6285892064144692,0.9087912087912088,0.6741979213737008,0.9747899159663865,0.799613246313754,0.9111450381679389,0.1500646830530401,0.8507136427928507,0.7749642903519024,0.2600896860986547,3640,4426,119,0.0814530126456732,0.38686131386861317,1.064709342243648
simple_pc1_gm_gate_t254,score_dual,0.01,pc1__ge,-5.359154835604749,202,8477,0.7612362864220833,0.6199032501443162,0.9098901098901099,0.6741979213737008,0.3819951338199513,0.7603305785123967,0.8947526236881559,0.19974554707379136,0.8284142071035517,0.7689730704806081,0.2623224728487886,3640,4426,411,8066,0.7805603768906522,0.5413176807351755,0.9098901098901099,0.6741979213737008,0.0,0.7951980792316927,0.9119804400977995,0.0,0.848686739269699,0.7752663029358274,0.0,3640,4426,0,119,1.0,0.3333333333333333,0.0,0.0,1.0,0.0,0.0,1.0,0.0,0.0,1.0,0,0,119,292,0.13013698630136986,0.07676767676767678,0.0,0.0,0.13013698630136986,0.0,0.0,1.0,0.0,0.0,0.23030303030303031,0,0,292,8185,0.7837507635919365,0.6328209487090316,0.9098901098901099,0.6741979213737008,1.0,0.7951980792316927,0.9119804400977995,0.1590909090909091,0.848686739269699,0.7752663029358274,0.27450980392156865,3640,4426,119,0.0779816513761468,0.3819951338199513,1.0644551312042716
simple_pc1_gm_gate_t254,score_all_max,0.01,pc1__ge,-5.359154835604749,202,8477,0.7612362864220833,0.6199032501443162,0.9098901098901099,0.6741979213737008,0.3819951338199513,0.7603305785123967,0.8947526236881559,0.19974554707379136,0.8284142071035517,0.7689730704806081,0.2623224728487886,3640,4426,411,8066,0.7805603768906522,0.5413176807351755,0.9098901098901099,0.6741979213737008,0.0,0.7951980792316927,0.9119804400977995,0.0,0.848686739269699,0.7752663029358274,0.0,3640,4426,0,119,1.0,0.3333333333333333,0.0,0.0,1.0,0.0,0.0,1.0,0.0,0.0,1.0,0,0,119,292,0.13013698630136986,0.07676767676767678,0.0,0.0,0.13013698630136986,0.0,0.0,1.0,0.0,0.0,0.23030303030303031,0,0,292,8185,0.7837507635919365,0.6328209487090316,0.9098901098901099,0.6741979213737008,1.0,0.7951980792316927,0.9119804400977995,0.1590909090909091,0.848686739269699,0.7752663029358274,0.27450980392156865,3640,4426,119,0.0779816513761468,0.3819951338199513,1.0644551312042716
simple_pc1_gm_gate_t254,score_core,0.01,pc1__ge,-5.359154835604749,202,8477,0.7612362864220833,0.6199032501443162,0.9098901098901099,0.6741979213737008,0.3819951338199513,0.7603305785123967,0.8947526236881559,0.19974554707379136,0.8284142071035517,0.7689730704806081,0.2623224728487886,3640,4426,411,8066,0.7805603768906522,0.5413176807351755,0.9098901098901099,0.6741979213737008,0.0,0.7951980792316927,0.9119804400977995,0.0,0.848686739269699,0.7752663029358274,0.0,3640,4426,0,119,1.0,0.3333333333333333,0.0,0.0,1.0,0.0,0.0,1.0,0.0,0.0,1.0,0,0,119,292,0.13013698630136986,0.07676767676767678,0.0,0.0,0.13013698630136986,0.0,0.0,1.0,0.0,0.0,0.23030303030303031,0,0,292,8185,0.7837507635919365,0.6328209487090316,0.9098901098901099,0.6741979213737008,1.0,0.7951980792316927,0.9119804400977995,0.1590909090909091,0.848686739269699,0.7752663029358274,0.27450980392156865,3640,4426,119,0.0779816513761468,0.3819951338199513,1.0644551312042716
simple_pc1_gm_gate_t254,score_outlier,0.01,pc1__ge,-5.359154835604749,202,8477,0.7612362864220833,0.6199032501443162,0.9098901098901099,0.6741979213737008,0.3819951338199513,0.7603305785123967,0.8947526236881559,0.19974554707379136,0.8284142071035517,0.7689730704806081,0.2623224728487886,3640,4426,411,8066,0.7805603768906522,0.5413176807351755,0.9098901098901099,0.6741979213737008,0.0,0.7951980792316927,0.9119804400977995,0.0,0.848686739269699,0.7752663029358274,0.0,3640,4426,0,119,1.0,0.3333333333333333,0.0,0.0,1.0,0.0,0.0,1.0,0.0,0.0,1.0,0,0,119,292,0.13013698630136986,0.07676767676767678,0.0,0.0,0.13013698630136986,0.0,0.0,1.0,0.0,0.0,0.23030303030303031,0,0,292,8185,0.7837507635919365,0.6328209487090316,0.9098901098901099,0.6741979213737008,1.0,0.7951980792316927,0.9119804400977995,0.1590909090909091,0.848686739269699,0.7752663029358274,0.27450980392156865,3640,4426,119,0.0779816513761468,0.3819951338199513,1.0644551312042716
simple_pc1_gm_gate_t254,score_dual,0.01,pc3__ge,-1.610530736647411,170,8477,0.76170815146868,0.6210499283372564,0.9112637362637362,0.6741979213737008,0.3795620437956204,0.7562699498404013,0.894216362001798,0.20689655172413793,0.826563668078744,0.7687749581347417,0.26781115879828327,3640,4426,411,8066,0.781180262831639,0.540628827389103,0.9112637362637362,0.6741979213737008,0.0,0.790891750119218,0.9114233353695785,0.0,0.8468215471023742,0.775064935064935,0.0,3640,4426,0,119,1.0,0.3333333333333333,0.0,0.0,1.0,0.0,0.0,1.0,0.0,0.0,1.0,0,0,119,292,0.1267123287671233,0.07497467071935157,0.0,0.0,0.1267123287671233,0.0,0.0,1.0,0.0,0.0,0.22492401215805471,0,0,292,8185,0.7843616371411118,0.63552515912754,0.9112637362637362,0.6741979213737008,1.0,0.790891750119218,0.9114233353695785,0.16596931659693165,0.8468215471023742,0.775064935064935,0.284688995215311,3640,4426,119,0.07413835854202827,0.3795620437956204,1.0635617161122157
simple_pc1_gm_gate_t254,score_all_max,0.01,pc3__ge,-1.610530736647411,170,8477,0.76170815146868,0.6210499283372564,0.9112637362637362,0.6741979213737008,0.3795620437956204,0.7562699498404013,0.894216362001798,0.20689655172413793,0.826563668078744,0.7687749581347417,0.26781115879828327,3640,4426,411,8066,0.781180262831639,0.540628827389103,0.9112637362637362,0.6741979213737008,0.0,0.790891750119218,0.9114233353695785,0.0,0.8468215471023742,0.775064935064935,0.0,3640,4426,0,119,1.0,0.3333333333333333,0.0,0.0,1.0,0.0,0.0,1.0,0.0,0.0,1.0,0,0,119,292,0.1267123287671233,0.07497467071935157,0.0,0.0,0.1267123287671233,0.0,0.0,1.0,0.0,0.0,0.22492401215805471,0,0,292,8185,0.7843616371411118,0.63552515912754,0.9112637362637362,0.6741979213737008,1.0,0.790891750119218,0.9114233353695785,0.16596931659693165,0.8468215471023742,0.775064935064935,0.284688995215311,3640,4426,119,0.07413835854202827,0.3795620437956204,1.0635617161122157
simple_pc1_gm_gate_t254,score_core,0.01,pc3__ge,-1.610530736647411,170,8477,0.76170815146868,0.6210499283372564,0.9112637362637362,0.6741979213737008,0.3795620437956204,0.7562699498404013,0.894216362001798,0.20689655172413793,0.826563668078744,0.7687749581347417,0.26781115879828327,3640,4426,411,8066,0.781180262831639,0.540628827389103,0.9112637362637362,0.6741979213737008,0.0,0.790891750119218,0.9114233353695785,0.0,0.8468215471023742,0.775064935064935,0.0,3640,4426,0,119,1.0,0.3333333333333333,0.0,0.0,1.0,0.0,0.0,1.0,0.0,0.0,1.0,0,0,119,292,0.1267123287671233,0.07497467071935157,0.0,0.0,0.1267123287671233,0.0,0.0,1.0,0.0,0.0,0.22492401215805471,0,0,292,8185,0.7843616371411118,0.63552515912754,0.9112637362637362,0.6741979213737008,1.0,0.790891750119218,0.9114233353695785,0.16596931659693165,0.8468215471023742,0.775064935064935,0.284688995215311,3640,4426,119,0.07413835854202827,0.3795620437956204,1.0635617161122157
simple_pc1_gm_gate_t254,score_outlier,0.01,pc3__ge,-1.610530736647411,170,8477,0.76170815146868,0.6210499283372564,0.9112637362637362,0.6741979213737008,0.3795620437956204,0.7562699498404013,0.894216362001798,0.20689655172413793,0.826563668078744,0.7687749581347417,0.26781115879828327,3640,4426,411,8066,0.781180262831639,0.540628827389103,0.9112637362637362,0.6741979213737008,0.0,0.790891750119218,0.9114233353695785,0.0,0.8468215471023742,0.775064935064935,0.0,3640,4426,0,119,1.0,0.3333333333333333,0.0,0.0,1.0,0.0,0.0,1.0,0.0,0.0,1.0,0,0,119,292,0.1267123287671233,0.07497467071935157,0.0,0.0,0.1267123287671233,0.0,0.0,1.0,0.0,0.0,0.22492401215805471,0,0,292,8185,0.7843616371411118,0.63552515912754,0.9112637362637362,0.6741979213737008,1.0,0.790891750119218,0.9114233353695785,0.16596931659693165,0.8468215471023742,0.775064935064935,0.284688995215311,3640,4426,119,0.07413835854202827,0.3795620437956204,1.0635617161122157
simple_pc1_gm_gate_t254,score_dual,0.03,pc3__le,3.281193089810729,147,8477,0.7643034092249616,0.6230010112795759,0.9101648351648352,0.6805241753276096,0.3746958637469586,0.7570840950639853,0.8937685459940653,0.2106703146374829,0.8265968063872255,0.7727039507439712,0.26970227670753066,3640,4426,411,8066,0.7841557153483759,0.5420224047351718,0.9101648351648352,0.6805241753276096,0.0,0.7914476827520306,0.9118982742960945,0.0,0.8466649629440327,0.7794022512614828,0.0,3640,4426,0,119,1.0,0.3333333333333333,0.0,0.0,1.0,0.0,0.0,1.0,0.0,0.0,1.0,0,0,119,292,0.11986301369863013,0.07135575942915393,0.0,0.0,0.11986301369863013,0.0,0.0,1.0,0.0,0.0,0.21406727828746178,0,0,292,8185,0.7872938301771534,0.6393639180276054,0.9101648351648352,0.6805241753276096,1.0,0.7914476827520306,0.9118982742960945,0.17097701149425287,0.8466649629440327,0.7794022512614828,0.2920245398773006,3640,4426,119,0.07153483758988347,0.3746958637469586,1.0634264135911915
simple_pc1_gm_gate_t254,score_all_max,0.03,pc3__le,3.281193089810729,147,8477,0.7643034092249616,0.6230010112795759,0.9101648351648352,0.6805241753276096,0.3746958637469586,0.7570840950639853,0.8937685459940653,0.2106703146374829,0.8265968063872255,0.7727039507439712,0.26970227670753066,3640,4426,411,8066,0.7841557153483759,0.5420224047351718,0.9101648351648352,0.6805241753276096,0.0,0.7914476827520306,0.9118982742960945,0.0,0.8466649629440327,0.7794022512614828,0.0,3640,4426,0,119,1.0,0.3333333333333333,0.0,0.0,1.0,0.0,0.0,1.0,0.0,0.0,1.0,0,0,119,292,0.11986301369863013,0.07135575942915393,0.0,0.0,0.11986301369863013,0.0,0.0,1.0,0.0,0.0,0.21406727828746178,0,0,292,8185,0.7872938301771534,0.6393639180276054,0.9101648351648352,0.6805241753276096,1.0,0.7914476827520306,0.9118982742960945,0.17097701149425287,0.8466649629440327,0.7794022512614828,0.2920245398773006,3640,4426,119,0.07153483758988347,0.3746958637469586,1.0634264135911915
simple_pc1_gm_gate_t254,score_core,0.03,pc3__le,3.281193089810729,147,8477,0.7643034092249616,0.6230010112795759,0.9101648351648352,0.6805241753276096,0.3746958637469586,0.7570840950639853,0.8937685459940653,0.2106703146374829,0.8265968063872255,0.7727039507439712,0.26970227670753066,3640,4426,411,8066,0.7841557153483759,0.5420224047351718,0.9101648351648352,0.6805241753276096,0.0,0.7914476827520306,0.9118982742960945,0.0,0.8466649629440327,0.7794022512614828,0.0,3640,4426,0,119,1.0,0.3333333333333333,0.0,0.0,1.0,0.0,0.0,1.0,0.0,0.0,1.0,0,0,119,292,0.11986301369863013,0.07135575942915393,0.0,0.0,0.11986301369863013,0.0,0.0,1.0,0.0,0.0,0.21406727828746178,0,0,292,8185,0.7872938301771534,0.6393639180276054,0.9101648351648352,0.6805241753276096,1.0,0.7914476827520306,0.9118982742960945,0.17097701149425287,0.8466649629440327,0.7794022512614828,0.2920245398773006,3640,4426,119,0.07153483758988347,0.3746958637469586,1.0634264135911915
simple_pc1_gm_gate_t254,score_outlier,0.03,pc3__le,3.281193089810729,147,8477,0.7643034092249616,0.6230010112795759,0.9101648351648352,0.6805241753276096,0.3746958637469586,0.7570840950639853,0.8937685459940653,0.2106703146374829,0.8265968063872255,0.7727039507439712,0.26970227670753066,3640,4426,411,8066,0.7841557153483759,0.5420224047351718,0.9101648351648352,0.6805241753276096,0.0,0.7914476827520306,0.9118982742960945,0.0,0.8466649629440327,0.7794022512614828,0.0,3640,4426,0,119,1.0,0.3333333333333333,0.0,0.0,1.0,0.0,0.0,1.0,0.0,0.0,1.0,0,0,119,292,0.11986301369863013,0.07135575942915393,0.0,0.0,0.11986301369863013,0.0,0.0,1.0,0.0,0.0,0.21406727828746178,0,0,292,8185,0.7872938301771534,0.6393639180276054,0.9101648351648352,0.6805241753276096,1.0,0.7914476827520306,0.9118982742960945,0.17097701149425287,0.8466649629440327,0.7794022512614828,0.2920245398773006,3640,4426,119,0.07153483758988347,0.3746958637469586,1.0634264135911915
simple_pc1_gm_gate_t254,score_dual,0.03,none,,148,8477,0.7641854429633125,0.6228698757556587,0.9101648351648352,0.6802982376863985,0.3746958637469586,0.7570840950639853,0.8937370139507272,0.2103825136612022,0.8265968063872255,0.7725465041693393,0.2694663167104112,3640,4426,411,8066,0.7840317381601786,0.5419697564540841,0.9101648351648352,0.6802982376863985,0.0,0.7914476827520306,0.9118715929739551,0.0,0.8466649629440327,0.7792443064182195,0.0,3640,4426,0,119,1.0,0.3333333333333333,0.0,0.0,1.0,0.0,0.0,1.0,0.0,0.0,1.0,0,0,119,292,0.11986301369863013,0.07135575942915393,0.0,0.0,0.11986301369863013,0.0,0.0,1.0,0.0,0.0,0.21406727828746178,0,0,292,8185,0.7871716554673183,0.6391919786763063,0.9101648351648352,0.6802982376863985,1.0,0.7914476827520306,0.9118715929739551,0.17073170731707318,0.8466649629440327,0.7792443064182195,0.2916666666666667,3640,4426,119,0.07165881477808084,0.3746958637469586,1.0633084473295424
simple_pc1_gm_gate_t254,score_dual,0.03,qrs_visibility__le,0.2800807397384144,148,8477,0.7641854429633125,0.6228698757556587,0.9101648351648352,0.6802982376863985,0.3746958637469586,0.7570840950639853,0.8937370139507272,0.2103825136612022,0.8265968063872255,0.7725465041693393,0.2694663167104112,3640,4426,411,8066,0.7840317381601786,0.5419697564540841,0.9101648351648352,0.6802982376863985,0.0,0.7914476827520306,0.9118715929739551,0.0,0.8466649629440327,0.7792443064182195,0.0,3640,4426,0,119,1.0,0.3333333333333333,0.0,0.0,1.0,0.0,0.0,1.0,0.0,0.0,1.0,0,0,119,292,0.11986301369863013,0.07135575942915393,0.0,0.0,0.11986301369863013,0.0,0.0,1.0,0.0,0.0,0.21406727828746178,0,0,292,8185,0.7871716554673183,0.6391919786763063,0.9101648351648352,0.6802982376863985,1.0,0.7914476827520306,0.9118715929739551,0.17073170731707318,0.8466649629440327,0.7792443064182195,0.2916666666666667,3640,4426,119,0.07165881477808084,0.3746958637469586,1.0633084473295424
simple_pc1_gm_gate_t254,score_dual,0.03,qrs_visibility__le,0.3732307518330272,148,8477,0.7641854429633125,0.6228698757556587,0.9101648351648352,0.6802982376863985,0.3746958637469586,0.7570840950639853,0.8937370139507272,0.2103825136612022,0.8265968063872255,0.7725465041693393,0.2694663167104112,3640,4426,411,8066,0.7840317381601786,0.5419697564540841,0.9101648351648352,0.6802982376863985,0.0,0.7914476827520306,0.9118715929739551,0.0,0.8466649629440327,0.7792443064182195,0.0,3640,4426,0,119,1.0,0.3333333333333333,0.0,0.0,1.0,0.0,0.0,1.0,0.0,0.0,1.0,0,0,119,292,0.11986301369863013,0.07135575942915393,0.0,0.0,0.11986301369863013,0.0,0.0,1.0,0.0,0.0,0.21406727828746178,0,0,292,8185,0.7871716554673183,0.6391919786763063,0.9101648351648352,0.6802982376863985,1.0,0.7914476827520306,0.9118715929739551,0.17073170731707318,0.8466649629440327,0.7792443064182195,0.2916666666666667,3640,4426,119,0.07165881477808084,0.3746958637469586,1.0633084473295424
simple_pc1_gm_gate_t254,score_all_max,0.03,none,,148,8477,0.7641854429633125,0.6228698757556587,0.9101648351648352,0.6802982376863985,0.3746958637469586,0.7570840950639853,0.8937370139507272,0.2103825136612022,0.8265968063872255,0.7725465041693393,0.2694663167104112,3640,4426,411,8066,0.7840317381601786,0.5419697564540841,0.9101648351648352,0.6802982376863985,0.0,0.7914476827520306,0.9118715929739551,0.0,0.8466649629440327,0.7792443064182195,0.0,3640,4426,0,119,1.0,0.3333333333333333,0.0,0.0,1.0,0.0,0.0,1.0,0.0,0.0,1.0,0,0,119,292,0.11986301369863013,0.07135575942915393,0.0,0.0,0.11986301369863013,0.0,0.0,1.0,0.0,0.0,0.21406727828746178,0,0,292,8185,0.7871716554673183,0.6391919786763063,0.9101648351648352,0.6802982376863985,1.0,0.7914476827520306,0.9118715929739551,0.17073170731707318,0.8466649629440327,0.7792443064182195,0.2916666666666667,3640,4426,119,0.07165881477808084,0.3746958637469586,1.0633084473295424
simple_pc1_gm_gate_t254,score_all_max,0.03,qrs_visibility__le,0.2800807397384144,148,8477,0.7641854429633125,0.6228698757556587,0.9101648351648352,0.6802982376863985,0.3746958637469586,0.7570840950639853,0.8937370139507272,0.2103825136612022,0.8265968063872255,0.7725465041693393,0.2694663167104112,3640,4426,411,8066,0.7840317381601786,0.5419697564540841,0.9101648351648352,0.6802982376863985,0.0,0.7914476827520306,0.9118715929739551,0.0,0.8466649629440327,0.7792443064182195,0.0,3640,4426,0,119,1.0,0.3333333333333333,0.0,0.0,1.0,0.0,0.0,1.0,0.0,0.0,1.0,0,0,119,292,0.11986301369863013,0.07135575942915393,0.0,0.0,0.11986301369863013,0.0,0.0,1.0,0.0,0.0,0.21406727828746178,0,0,292,8185,0.7871716554673183,0.6391919786763063,0.9101648351648352,0.6802982376863985,1.0,0.7914476827520306,0.9118715929739551,0.17073170731707318,0.8466649629440327,0.7792443064182195,0.2916666666666667,3640,4426,119,0.07165881477808084,0.3746958637469586,1.0633084473295424
simple_pc1_gm_gate_t254,score_all_max,0.03,qrs_visibility__le,0.3732307518330272,148,8477,0.7641854429633125,0.6228698757556587,0.9101648351648352,0.6802982376863985,0.3746958637469586,0.7570840950639853,0.8937370139507272,0.2103825136612022,0.8265968063872255,0.7725465041693393,0.2694663167104112,3640,4426,411,8066,0.7840317381601786,0.5419697564540841,0.9101648351648352,0.6802982376863985,0.0,0.7914476827520306,0.9118715929739551,0.0,0.8466649629440327,0.7792443064182195,0.0,3640,4426,0,119,1.0,0.3333333333333333,0.0,0.0,1.0,0.0,0.0,1.0,0.0,0.0,1.0,0,0,119,292,0.11986301369863013,0.07135575942915393,0.0,0.0,0.11986301369863013,0.0,0.0,1.0,0.0,0.0,0.21406727828746178,0,0,292,8185,0.7871716554673183,0.6391919786763063,0.9101648351648352,0.6802982376863985,1.0,0.7914476827520306,0.9118715929739551,0.17073170731707318,0.8466649629440327,0.7792443064182195,0.2916666666666667,3640,4426,119,0.07165881477808084,0.3746958637469586,1.0633084473295424
simple_pc1_gm_gate_t254,score_core,0.03,none,,148,8477,0.7641854429633125,0.6228698757556587,0.9101648351648352,0.6802982376863985,0.3746958637469586,0.7570840950639853,0.8937370139507272,0.2103825136612022,0.8265968063872255,0.7725465041693393,0.2694663167104112,3640,4426,411,8066,0.7840317381601786,0.5419697564540841,0.9101648351648352,0.6802982376863985,0.0,0.7914476827520306,0.9118715929739551,0.0,0.8466649629440327,0.7792443064182195,0.0,3640,4426,0,119,1.0,0.3333333333333333,0.0,0.0,1.0,0.0,0.0,1.0,0.0,0.0,1.0,0,0,119,292,0.11986301369863013,0.07135575942915393,0.0,0.0,0.11986301369863013,0.0,0.0,1.0,0.0,0.0,0.21406727828746178,0,0,292,8185,0.7871716554673183,0.6391919786763063,0.9101648351648352,0.6802982376863985,1.0,0.7914476827520306,0.9118715929739551,0.17073170731707318,0.8466649629440327,0.7792443064182195,0.2916666666666667,3640,4426,119,0.07165881477808084,0.3746958637469586,1.0633084473295424
simple_pc1_gm_gate_t254,score_core,0.03,qrs_visibility__le,0.2800807397384144,148,8477,0.7641854429633125,0.6228698757556587,0.9101648351648352,0.6802982376863985,0.3746958637469586,0.7570840950639853,0.8937370139507272,0.2103825136612022,0.8265968063872255,0.7725465041693393,0.2694663167104112,3640,4426,411,8066,0.7840317381601786,0.5419697564540841,0.9101648351648352,0.6802982376863985,0.0,0.7914476827520306,0.9118715929739551,0.0,0.8466649629440327,0.7792443064182195,0.0,3640,4426,0,119,1.0,0.3333333333333333,0.0,0.0,1.0,0.0,0.0,1.0,0.0,0.0,1.0,0,0,119,292,0.11986301369863013,0.07135575942915393,0.0,0.0,0.11986301369863013,0.0,0.0,1.0,0.0,0.0,0.21406727828746178,0,0,292,8185,0.7871716554673183,0.6391919786763063,0.9101648351648352,0.6802982376863985,1.0,0.7914476827520306,0.9118715929739551,0.17073170731707318,0.8466649629440327,0.7792443064182195,0.2916666666666667,3640,4426,119,0.07165881477808084,0.3746958637469586,1.0633084473295424
simple_pc1_gm_gate_t254,score_core,0.03,qrs_visibility__le,0.3732307518330272,148,8477,0.7641854429633125,0.6228698757556587,0.9101648351648352,0.6802982376863985,0.3746958637469586,0.7570840950639853,0.8937370139507272,0.2103825136612022,0.8265968063872255,0.7725465041693393,0.2694663167104112,3640,4426,411,8066,0.7840317381601786,0.5419697564540841,0.9101648351648352,0.6802982376863985,0.0,0.7914476827520306,0.9118715929739551,0.0,0.8466649629440327,0.7792443064182195,0.0,3640,4426,0,119,1.0,0.3333333333333333,0.0,0.0,1.0,0.0,0.0,1.0,0.0,0.0,1.0,0,0,119,292,0.11986301369863013,0.07135575942915393,0.0,0.0,0.11986301369863013,0.0,0.0,1.0,0.0,0.0,0.21406727828746178,0,0,292,8185,0.7871716554673183,0.6391919786763063,0.9101648351648352,0.6802982376863985,1.0,0.7914476827520306,0.9118715929739551,0.17073170731707318,0.8466649629440327,0.7792443064182195,0.2916666666666667,3640,4426,119,0.07165881477808084,0.3746958637469586,1.0633084473295424
simple_pc1_gm_gate_t254,score_outlier,0.03,none,,148,8477,0.7641854429633125,0.6228698757556587,0.9101648351648352,0.6802982376863985,0.3746958637469586,0.7570840950639853,0.8937370139507272,0.2103825136612022,0.8265968063872255,0.7725465041693393,0.2694663167104112,3640,4426,411,8066,0.7840317381601786,0.5419697564540841,0.9101648351648352,0.6802982376863985,0.0,0.7914476827520306,0.9118715929739551,0.0,0.8466649629440327,0.7792443064182195,0.0,3640,4426,0,119,1.0,0.3333333333333333,0.0,0.0,1.0,0.0,0.0,1.0,0.0,0.0,1.0,0,0,119,292,0.11986301369863013,0.07135575942915393,0.0,0.0,0.11986301369863013,0.0,0.0,1.0,0.0,0.0,0.21406727828746178,0,0,292,8185,0.7871716554673183,0.6391919786763063,0.9101648351648352,0.6802982376863985,1.0,0.7914476827520306,0.9118715929739551,0.17073170731707318,0.8466649629440327,0.7792443064182195,0.2916666666666667,3640,4426,119,0.07165881477808084,0.3746958637469586,1.0633084473295424
simple_pc1_gm_gate_t254,score_outlier,0.03,qrs_visibility__le,0.2800807397384144,148,8477,0.7641854429633125,0.6228698757556587,0.9101648351648352,0.6802982376863985,0.3746958637469586,0.7570840950639853,0.8937370139507272,0.2103825136612022,0.8265968063872255,0.7725465041693393,0.2694663167104112,3640,4426,411,8066,0.7840317381601786,0.5419697564540841,0.9101648351648352,0.6802982376863985,0.0,0.7914476827520306,0.9118715929739551,0.0,0.8466649629440327,0.7792443064182195,0.0,3640,4426,0,119,1.0,0.3333333333333333,0.0,0.0,1.0,0.0,0.0,1.0,0.0,0.0,1.0,0,0,119,292,0.11986301369863013,0.07135575942915393,0.0,0.0,0.11986301369863013,0.0,0.0,1.0,0.0,0.0,0.21406727828746178,0,0,292,8185,0.7871716554673183,0.6391919786763063,0.9101648351648352,0.6802982376863985,1.0,0.7914476827520306,0.9118715929739551,0.17073170731707318,0.8466649629440327,0.7792443064182195,0.2916666666666667,3640,4426,119,0.07165881477808084,0.3746958637469586,1.0633084473295424
simple_pc1_gm_gate_t254,score_outlier,0.03,qrs_visibility__le,0.3732307518330272,148,8477,0.7641854429633125,0.6228698757556587,0.9101648351648352,0.6802982376863985,0.3746958637469586,0.7570840950639853,0.8937370139507272,0.2103825136612022,0.8265968063872255,0.7725465041693393,0.2694663167104112,3640,4426,411,8066,0.7840317381601786,0.5419697564540841,0.9101648351648352,0.6802982376863985,0.0,0.7914476827520306,0.9118715929739551,0.0,0.8466649629440327,0.7792443064182195,0.0,3640,4426,0,119,1.0,0.3333333333333333,0.0,0.0,1.0,0.0,0.0,1.0,0.0,0.0,1.0,0,0,119,292,0.11986301369863013,0.07135575942915393,0.0,0.0,0.11986301369863013,0.0,0.0,1.0,0.0,0.0,0.21406727828746178,0,0,292,8185,0.7871716554673183,0.6391919786763063,0.9101648351648352,0.6802982376863985,1.0,0.7914476827520306,0.9118715929739551,0.17073170731707318,0.8466649629440327,0.7792443064182195,0.2916666666666667,3640,4426,119,0.07165881477808084,0.3746958637469586,1.0633084473295424
simple_pc1_gm_gate_t254,score_dual,0.02,pc1__ge,-6.099036591134506,163,8477,0.7632417128701191,0.6215316001691177,0.9096153846153846,0.6789426118391324,0.3746958637469586,0.7578393224994278,0.894079143112169,0.20615796519410978,0.8268198276938444,0.7717991524335431,0.2659758203799655,3640,4426,411,8066,0.7830399206545996,0.5418054262954344,0.9096153846153846,0.6789426118391324,0.0,0.7924844423168981,0.9119878603945372,0.0,0.8470196981325148,0.7783965807537884,0.0,3640,4426,0,119,1.0,0.3333333333333333,0.0,0.0,1.0,0.0,0.0,1.0,0.0,0.0,1.0,0,0,119,292,0.11986301369863013,0.07135575942915393,0.0,0.0,0.11986301369863013,0.0,0.0,1.0,0.0,0.0,0.21406727828746178,0,0,292,8185,0.7861942577886377,0.6372727347591327,0.9096153846153846,0.6789426118391324,1.0,0.7924844423168981,0.9119878603945372,0.16713483146067415,0.8470196981325148,0.7783965807537884,0.28640192539109505,3640,4426,119,0.07351847260104141,0.3746958637469586,1.062364717236349
simple_pc1_gm_gate_t254,score_all_max,0.02,pc1__ge,-6.099036591134506,163,8477,0.7632417128701191,0.6215316001691177,0.9096153846153846,0.6789426118391324,0.3746958637469586,0.7578393224994278,0.894079143112169,0.20615796519410978,0.8268198276938444,0.7717991524335431,0.2659758203799655,3640,4426,411,8066,0.7830399206545996,0.5418054262954344,0.9096153846153846,0.6789426118391324,0.0,0.7924844423168981,0.9119878603945372,0.0,0.8470196981325148,0.7783965807537884,0.0,3640,4426,0,119,1.0,0.3333333333333333,0.0,0.0,1.0,0.0,0.0,1.0,0.0,0.0,1.0,0,0,119,292,0.11986301369863013,0.07135575942915393,0.0,0.0,0.11986301369863013,0.0,0.0,1.0,0.0,0.0,0.21406727828746178,0,0,292,8185,0.7861942577886377,0.6372727347591327,0.9096153846153846,0.6789426118391324,1.0,0.7924844423168981,0.9119878603945372,0.16713483146067415,0.8470196981325148,0.7783965807537884,0.28640192539109505,3640,4426,119,0.07351847260104141,0.3746958637469586,1.062364717236349
simple_pc1_gm_gate_t254,score_core,0.02,pc1__ge,-6.099036591134506,163,8477,0.7632417128701191,0.6215316001691177,0.9096153846153846,0.6789426118391324,0.3746958637469586,0.7578393224994278,0.894079143112169,0.20615796519410978,0.8268198276938444,0.7717991524335431,0.2659758203799655,3640,4426,411,8066,0.7830399206545996,0.5418054262954344,0.9096153846153846,0.6789426118391324,0.0,0.7924844423168981,0.9119878603945372,0.0,0.8470196981325148,0.7783965807537884,0.0,3640,4426,0,119,1.0,0.3333333333333333,0.0,0.0,1.0,0.0,0.0,1.0,0.0,0.0,1.0,0,0,119,292,0.11986301369863013,0.07135575942915393,0.0,0.0,0.11986301369863013,0.0,0.0,1.0,0.0,0.0,0.21406727828746178,0,0,292,8185,0.7861942577886377,0.6372727347591327,0.9096153846153846,0.6789426118391324,1.0,0.7924844423168981,0.9119878603945372,0.16713483146067415,0.8470196981325148,0.7783965807537884,0.28640192539109505,3640,4426,119,0.07351847260104141,0.3746958637469586,1.062364717236349
simple_pc1_gm_gate_t254,score_outlier,0.02,pc1__ge,-6.099036591134506,163,8477,0.7632417128701191,0.6215316001691177,0.9096153846153846,0.6789426118391324,0.3746958637469586,0.7578393224994278,0.894079143112169,0.20615796519410978,0.8268198276938444,0.7717991524335431,0.2659758203799655,3640,4426,411,8066,0.7830399206545996,0.5418054262954344,0.9096153846153846,0.6789426118391324,0.0,0.7924844423168981,0.9119878603945372,0.0,0.8470196981325148,0.7783965807537884,0.0,3640,4426,0,119,1.0,0.3333333333333333,0.0,0.0,1.0,0.0,0.0,1.0,0.0,0.0,1.0,0,0,119,292,0.11986301369863013,0.07135575942915393,0.0,0.0,0.11986301369863013,0.0,0.0,1.0,0.0,0.0,0.21406727828746178,0,0,292,8185,0.7861942577886377,0.6372727347591327,0.9096153846153846,0.6789426118391324,1.0,0.7924844423168981,0.9119878603945372,0.16713483146067415,0.8470196981325148,0.7783965807537884,0.28640192539109505,3640,4426,119,0.07351847260104141,0.3746958637469586,1.062364717236349
simple_pc1_gm_gate_t254,score_dual,0.05,pc3__le,2.1506591515994145,105,8477,0.7671345995045417,0.6255002969148923,0.9112637362637362,0.6857207410754632,0.36739659367396593,0.7548930359581247,0.8942251031231585,0.21915820029027577,0.8257406024396315,0.7762148337595908,0.27454545454545454,3640,4426,411,8066,0.787503099429705,0.5429937998904578,0.9112637362637362,0.6857207410754632,0.0,0.7893860066634936,0.9125075165363801,0.0,0.8459576638612599,0.7830237358101135,0.0,3640,4426,0,119,1.0,0.3333333333333333,0.0,0.0,1.0,0.0,0.0,1.0,0.0,0.0,1.0,0,0,119,292,0.1095890410958904,0.06584362139917695,0.0,0.0,0.1095890410958904,0.0,0.0,1.0,0.0,0.0,0.19753086419753085,0,0,292,8185,0.7905925473427,0.6452274768664028,0.9112637362637362,0.6857207410754632,1.0,0.7893860066634936,0.9125075165363801,0.1811263318112633,0.8459576638612599,0.7830237358101135,0.30670103092783507,3640,4426,119,0.06669972725018597,0.36739659367396593,1.0621617634548133
simple_pc1_gm_gate_t254,score_all_max,0.05,pc3__le,2.1506591515994145,105,8477,0.7671345995045417,0.6255002969148923,0.9112637362637362,0.6857207410754632,0.36739659367396593,0.7548930359581247,0.8942251031231585,0.21915820029027577,0.8257406024396315,0.7762148337595908,0.27454545454545454,3640,4426,411,8066,0.787503099429705,0.5429937998904578,0.9112637362637362,0.6857207410754632,0.0,0.7893860066634936,0.9125075165363801,0.0,0.8459576638612599,0.7830237358101135,0.0,3640,4426,0,119,1.0,0.3333333333333333,0.0,0.0,1.0,0.0,0.0,1.0,0.0,0.0,1.0,0,0,119,292,0.1095890410958904,0.06584362139917695,0.0,0.0,0.1095890410958904,0.0,0.0,1.0,0.0,0.0,0.19753086419753085,0,0,292,8185,0.7905925473427,0.6452274768664028,0.9112637362637362,0.6857207410754632,1.0,0.7893860066634936,0.9125075165363801,0.1811263318112633,0.8459576638612599,0.7830237358101135,0.30670103092783507,3640,4426,119,0.06669972725018597,0.36739659367396593,1.0621617634548133
simple_pc1_gm_gate_t254,score_core,0.05,pc3__le,2.1506591515994145,105,8477,0.7671345995045417,0.6255002969148923,0.9112637362637362,0.6857207410754632,0.36739659367396593,0.7548930359581247,0.8942251031231585,0.21915820029027577,0.8257406024396315,0.7762148337595908,0.27454545454545454,3640,4426,411,8066,0.787503099429705,0.5429937998904578,0.9112637362637362,0.6857207410754632,0.0,0.7893860066634936,0.9125075165363801,0.0,0.8459576638612599,0.7830237358101135,0.0,3640,4426,0,119,1.0,0.3333333333333333,0.0,0.0,1.0,0.0,0.0,1.0,0.0,0.0,1.0,0,0,119,292,0.1095890410958904,0.06584362139917695,0.0,0.0,0.1095890410958904,0.0,0.0,1.0,0.0,0.0,0.19753086419753085,0,0,292,8185,0.7905925473427,0.6452274768664028,0.9112637362637362,0.6857207410754632,1.0,0.7893860066634936,0.9125075165363801,0.1811263318112633,0.8459576638612599,0.7830237358101135,0.30670103092783507,3640,4426,119,0.06669972725018597,0.36739659367396593,1.0621617634548133
simple_pc1_gm_gate_t254,score_outlier,0.05,pc3__le,2.1506591515994145,105,8477,0.7671345995045417,0.6255002969148923,0.9112637362637362,0.6857207410754632,0.36739659367396593,0.7548930359581247,0.8942251031231585,0.21915820029027577,0.8257406024396315,0.7762148337595908,0.27454545454545454,3640,4426,411,8066,0.787503099429705,0.5429937998904578,0.9112637362637362,0.6857207410754632,0.0,0.7893860066634936,0.9125075165363801,0.0,0.8459576638612599,0.7830237358101135,0.0,3640,4426,0,119,1.0,0.3333333333333333,0.0,0.0,1.0,0.0,0.0,1.0,0.0,0.0,1.0,0,0,119,292,0.1095890410958904,0.06584362139917695,0.0,0.0,0.1095890410958904,0.0,0.0,1.0,0.0,0.0,0.19753086419753085,0,0,292,8185,0.7905925473427,0.6452274768664028,0.9112637362637362,0.6857207410754632,1.0,0.7893860066634936,0.9125075165363801,0.1811263318112633,0.8459576638612599,0.7830237358101135,0.30670103092783507,3640,4426,119,0.06669972725018597,0.36739659367396593,1.0621617634548133
simple_pc1_gm_gate_t254,score_dual,0.01,qrs_visibility__le,0.1065758014715877,217,8477,0.7615901852070308,0.6196218945010715,0.9098901098901099,0.6748757342973339,0.3819951338199513,0.7654263924196903,0.8919080322484324,0.19600499375780275,0.8314296472950923,0.7683601286173634,0.2590759075907591,3640,4426,411,8066,0.7809323084552442,0.5421479810557935,0.9098901098901099,0.6748757342973339,0.0,0.7998068099492877,0.9103931728131667,0.0,0.8513044595810307,0.7751394835863501,0.0,3640,4426,0,119,0.9663865546218487,0.3276353276353276,0.0,0.0,0.9663865546218487,0.0,0.0,1.0,0.0,0.0,0.9829059829059829,0,0,119,292,0.14383561643835616,0.08383233532934131,0.0,0.0,0.14383561643835616,0.0,0.0,1.0,0.0,0.0,0.25149700598802394,0,0,292,8185,0.7836285888821014,0.6293336151499765,0.9098901098901099,0.6748757342973339,0.9663865546218487,0.7998068099492877,0.9092846270928463,0.15151515151515152,0.8513044595810307,0.7747373881468033,0.2619589977220957,3640,4426,119,0.07984130919910737,0.3819951338199513,1.0618218077030446
simple_pc1_gm_gate_t254,score_all_max,0.01,qrs_visibility__le,0.1065758014715877,217,8477,0.7615901852070308,0.6196218945010715,0.9098901098901099,0.6748757342973339,0.3819951338199513,0.7654263924196903,0.8919080322484324,0.19600499375780275,0.8314296472950923,0.7683601286173634,0.2590759075907591,3640,4426,411,8066,0.7809323084552442,0.5421479810557935,0.9098901098901099,0.6748757342973339,0.0,0.7998068099492877,0.9103931728131667,0.0,0.8513044595810307,0.7751394835863501,0.0,3640,4426,0,119,0.9663865546218487,0.3276353276353276,0.0,0.0,0.9663865546218487,0.0,0.0,1.0,0.0,0.0,0.9829059829059829,0,0,119,292,0.14383561643835616,0.08383233532934131,0.0,0.0,0.14383561643835616,0.0,0.0,1.0,0.0,0.0,0.25149700598802394,0,0,292,8185,0.7836285888821014,0.6293336151499765,0.9098901098901099,0.6748757342973339,0.9663865546218487,0.7998068099492877,0.9092846270928463,0.15151515151515152,0.8513044595810307,0.7747373881468033,0.2619589977220957,3640,4426,119,0.07984130919910737,0.3819951338199513,1.0618218077030446
simple_pc1_gm_gate_t254,score_core,0.01,qrs_visibility__le,0.1065758014715877,217,8477,0.7615901852070308,0.6196218945010715,0.9098901098901099,0.6748757342973339,0.3819951338199513,0.7654263924196903,0.8919080322484324,0.19600499375780275,0.8314296472950923,0.7683601286173634,0.2590759075907591,3640,4426,411,8066,0.7809323084552442,0.5421479810557935,0.9098901098901099,0.6748757342973339,0.0,0.7998068099492877,0.9103931728131667,0.0,0.8513044595810307,0.7751394835863501,0.0,3640,4426,0,119,0.9663865546218487,0.3276353276353276,0.0,0.0,0.9663865546218487,0.0,0.0,1.0,0.0,0.0,0.9829059829059829,0,0,119,292,0.14383561643835616,0.08383233532934131,0.0,0.0,0.14383561643835616,0.0,0.0,1.0,0.0,0.0,0.25149700598802394,0,0,292,8185,0.7836285888821014,0.6293336151499765,0.9098901098901099,0.6748757342973339,0.9663865546218487,0.7998068099492877,0.9092846270928463,0.15151515151515152,0.8513044595810307,0.7747373881468033,0.2619589977220957,3640,4426,119,0.07984130919910737,0.3819951338199513,1.0618218077030446
simple_pc1_gm_gate_t254,score_outlier,0.01,qrs_visibility__le,0.1065758014715877,217,8477,0.7615901852070308,0.6196218945010715,0.9098901098901099,0.6748757342973339,0.3819951338199513,0.7654263924196903,0.8919080322484324,0.19600499375780275,0.8314296472950923,0.7683601286173634,0.2590759075907591,3640,4426,411,8066,0.7809323084552442,0.5421479810557935,0.9098901098901099,0.6748757342973339,0.0,0.7998068099492877,0.9103931728131667,0.0,0.8513044595810307,0.7751394835863501,0.0,3640,4426,0,119,0.9663865546218487,0.3276353276353276,0.0,0.0,0.9663865546218487,0.0,0.0,1.0,0.0,0.0,0.9829059829059829,0,0,119,292,0.14383561643835616,0.08383233532934131,0.0,0.0,0.14383561643835616,0.0,0.0,1.0,0.0,0.0,0.25149700598802394,0,0,292,8185,0.7836285888821014,0.6293336151499765,0.9098901098901099,0.6748757342973339,0.9663865546218487,0.7998068099492877,0.9092846270928463,0.15151515151515152,0.8513044595810307,0.7747373881468033,0.2619589977220957,3640,4426,119,0.07984130919910737,0.3819951338199513,1.0618218077030446
simple_pc1_gm_gate_t254,score_dual,0.01,qrs_visibility__ge,0.018109057926941858,110,8477,0.7637135779167158,0.6238015457526845,0.9093406593406593,0.6802982376863985,0.3722627737226277,0.748868778280543,0.8953315492120131,0.22046109510086456,0.8213399503722084,0.773141609962768,0.27692307692307694,3640,4426,411,8066,0.7836598065955864,0.5403812236844162,0.9093406593406593,0.6802982376863985,0.0,0.7832465688594415,0.9127008184298272,0.0,0.8415967454869057,0.7795469255663431,0.0,3640,4426,0,119,1.0,0.3333333333333333,0.0,0.0,1.0,0.0,0.0,1.0,0.0,0.0,1.0,0,0,119,292,0.11643835616438356,0.06952965235173823,0.0,0.0,0.11643835616438356,0.0,0.0,1.0,0.0,0.0,0.2085889570552147,0,0,292,8185,0.786805131337813,0.642221189452495,0.9093406593406593,0.6802982376863985,1.0,0.7832465688594415,0.9127008184298272,0.1803030303030303,0.8415967454869057,0.7795469255663431,0.3055198973042362,3640,4426,119,0.06707165881477808,0.3722627737226277,1.061471302144293
simple_pc1_gm_gate_t254,score_all_max,0.01,qrs_visibility__ge,0.018109057926941858,110,8477,0.7637135779167158,0.6238015457526845,0.9093406593406593,0.6802982376863985,0.3722627737226277,0.748868778280543,0.8953315492120131,0.22046109510086456,0.8213399503722084,0.773141609962768,0.27692307692307694,3640,4426,411,8066,0.7836598065955864,0.5403812236844162,0.9093406593406593,0.6802982376863985,0.0,0.7832465688594415,0.9127008184298272,0.0,0.8415967454869057,0.7795469255663431,0.0,3640,4426,0,119,1.0,0.3333333333333333,0.0,0.0,1.0,0.0,0.0,1.0,0.0,0.0,1.0,0,0,119,292,0.11643835616438356,0.06952965235173823,0.0,0.0,0.11643835616438356,0.0,0.0,1.0,0.0,0.0,0.2085889570552147,0,0,292,8185,0.786805131337813,0.642221189452495,0.9093406593406593,0.6802982376863985,1.0,0.7832465688594415,0.9127008184298272,0.1803030303030303,0.8415967454869057,0.7795469255663431,0.3055198973042362,3640,4426,119,0.06707165881477808,0.3722627737226277,1.061471302144293
simple_pc1_gm_gate_t254,score_core,0.01,qrs_visibility__ge,0.018109057926941858,110,8477,0.7637135779167158,0.6238015457526845,0.9093406593406593,0.6802982376863985,0.3722627737226277,0.748868778280543,0.8953315492120131,0.22046109510086456,0.8213399503722084,0.773141609962768,0.27692307692307694,3640,4426,411,8066,0.7836598065955864,0.5403812236844162,0.9093406593406593,0.6802982376863985,0.0,0.7832465688594415,0.9127008184298272,0.0,0.8415967454869057,0.7795469255663431,0.0,3640,4426,0,119,1.0,0.3333333333333333,0.0,0.0,1.0,0.0,0.0,1.0,0.0,0.0,1.0,0,0,119,292,0.11643835616438356,0.06952965235173823,0.0,0.0,0.11643835616438356,0.0,0.0,1.0,0.0,0.0,0.2085889570552147,0,0,292,8185,0.786805131337813,0.642221189452495,0.9093406593406593,0.6802982376863985,1.0,0.7832465688594415,0.9127008184298272,0.1803030303030303,0.8415967454869057,0.7795469255663431,0.3055198973042362,3640,4426,119,0.06707165881477808,0.3722627737226277,1.061471302144293
simple_pc1_gm_gate_t254,score_outlier,0.01,qrs_visibility__ge,0.018109057926941858,110,8477,0.7637135779167158,0.6238015457526845,0.9093406593406593,0.6802982376863985,0.3722627737226277,0.748868778280543,0.8953315492120131,0.22046109510086456,0.8213399503722084,0.773141609962768,0.27692307692307694,3640,4426,411,8066,0.7836598065955864,0.5403812236844162,0.9093406593406593,0.6802982376863985,0.0,0.7832465688594415,0.9127008184298272,0.0,0.8415967454869057,0.7795469255663431,0.0,3640,4426,0,119,1.0,0.3333333333333333,0.0,0.0,1.0,0.0,0.0,1.0,0.0,0.0,1.0,0,0,119,292,0.11643835616438356,0.06952965235173823,0.0,0.0,0.11643835616438356,0.0,0.0,1.0,0.0,0.0,0.2085889570552147,0,0,292,8185,0.786805131337813,0.642221189452495,0.9093406593406593,0.6802982376863985,1.0,0.7832465688594415,0.9127008184298272,0.1803030303030303,0.8415967454869057,0.7795469255663431,0.3055198973042362,3640,4426,119,0.06707165881477808,0.3722627737226277,1.061471302144293
simple_pc1_gm_gate_t254,score_dual,0.05,none,,120,8477,0.7653651055798042,0.6234851762563026,0.9112637362637362,0.6823316764572978,0.36739659367396593,0.7548930359581247,0.8937555489789879,0.21448863636363635,0.8257406024396315,0.7738629083920564,0.27085201793721975,3640,4426,411,8066,0.7856434416067444,0.5422073346815979,0.9112637362637362,0.6823316764572978,0.0,0.7893860066634936,0.9121111446692842,0.0,0.8459576638612599,0.7806643401835337,0.0,3640,4426,0,119,1.0,0.3333333333333333,0.0,0.0,1.0,0.0,0.0,1.0,0.0,0.0,1.0,0,0,119,292,0.1095890410958904,0.06584362139917695,0.0,0.0,0.1095890410958904,0.0,0.0,1.0,0.0,0.0,0.19753086419753085,0,0,292,8185,0.7887599266951741,0.6425023199323353,0.9112637362637362,0.6823316764572978,1.0,0.7893860066634936,0.9121111446692842,0.17708333333333334,0.8459576638612599,0.7806643401835337,0.3008849557522124,3640,4426,119,0.06855938507314654,0.36739659367396593,1.0603922695300758
simple_pc1_gm_gate_t254,score_dual,0.05,pc3__le,3.281193089810729,120,8477,0.7653651055798042,0.6234851762563026,0.9112637362637362,0.6823316764572978,0.36739659367396593,0.7548930359581247,0.8937555489789879,0.21448863636363635,0.8257406024396315,0.7738629083920564,0.27085201793721975,3640,4426,411,8066,0.7856434416067444,0.5422073346815979,0.9112637362637362,0.6823316764572978,0.0,0.7893860066634936,0.9121111446692842,0.0,0.8459576638612599,0.7806643401835337,0.0,3640,4426,0,119,1.0,0.3333333333333333,0.0,0.0,1.0,0.0,0.0,1.0,0.0,0.0,1.0,0,0,119,292,0.1095890410958904,0.06584362139917695,0.0,0.0,0.1095890410958904,0.0,0.0,1.0,0.0,0.0,0.19753086419753085,0,0,292,8185,0.7887599266951741,0.6425023199323353,0.9112637362637362,0.6823316764572978,1.0,0.7893860066634936,0.9121111446692842,0.17708333333333334,0.8459576638612599,0.7806643401835337,0.3008849557522124,3640,4426,119,0.06855938507314654,0.36739659367396593,1.0603922695300758
simple_pc1_gm_gate_t254,score_dual,0.05,qrs_visibility__le,0.2800807397384144,120,8477,0.7653651055798042,0.6234851762563026,0.9112637362637362,0.6823316764572978,0.36739659367396593,0.7548930359581247,0.8937555489789879,0.21448863636363635,0.8257406024396315,0.7738629083920564,0.27085201793721975,3640,4426,411,8066,0.7856434416067444,0.5422073346815979,0.9112637362637362,0.6823316764572978,0.0,0.7893860066634936,0.9121111446692842,0.0,0.8459576638612599,0.7806643401835337,0.0,3640,4426,0,119,1.0,0.3333333333333333,0.0,0.0,1.0,0.0,0.0,1.0,0.0,0.0,1.0,0,0,119,292,0.1095890410958904,0.06584362139917695,0.0,0.0,0.1095890410958904,0.0,0.0,1.0,0.0,0.0,0.19753086419753085,0,0,292,8185,0.7887599266951741,0.6425023199323353,0.9112637362637362,0.6823316764572978,1.0,0.7893860066634936,0.9121111446692842,0.17708333333333334,0.8459576638612599,0.7806643401835337,0.3008849557522124,3640,4426,119,0.06855938507314654,0.36739659367396593,1.0603922695300758
simple_pc1_gm_gate_t254,score_dual,0.05,qrs_visibility__le,0.3732307518330272,120,8477,0.7653651055798042,0.6234851762563026,0.9112637362637362,0.6823316764572978,0.36739659367396593,0.7548930359581247,0.8937555489789879,0.21448863636363635,0.8257406024396315,0.7738629083920564,0.27085201793721975,3640,4426,411,8066,0.7856434416067444,0.5422073346815979,0.9112637362637362,0.6823316764572978,0.0,0.7893860066634936,0.9121111446692842,0.0,0.8459576638612599,0.7806643401835337,0.0,3640,4426,0,119,1.0,0.3333333333333333,0.0,0.0,1.0,0.0,0.0,1.0,0.0,0.0,1.0,0,0,119,292,0.1095890410958904,0.06584362139917695,0.0,0.0,0.1095890410958904,0.0,0.0,1.0,0.0,0.0,0.19753086419753085,0,0,292,8185,0.7887599266951741,0.6425023199323353,0.9112637362637362,0.6823316764572978,1.0,0.7893860066634936,0.9121111446692842,0.17708333333333334,0.8459576638612599,0.7806643401835337,0.3008849557522124,3640,4426,119,0.06855938507314654,0.36739659367396593,1.0603922695300758
simple_pc1_gm_gate_t254,score_all_max,0.05,none,,120,8477,0.7653651055798042,0.6234851762563026,0.9112637362637362,0.6823316764572978,0.36739659367396593,0.7548930359581247,0.8937555489789879,0.21448863636363635,0.8257406024396315,0.7738629083920564,0.27085201793721975,3640,4426,411,8066,0.7856434416067444,0.5422073346815979,0.9112637362637362,0.6823316764572978,0.0,0.7893860066634936,0.9121111446692842,0.0,0.8459576638612599,0.7806643401835337,0.0,3640,4426,0,119,1.0,0.3333333333333333,0.0,0.0,1.0,0.0,0.0,1.0,0.0,0.0,1.0,0,0,119,292,0.1095890410958904,0.06584362139917695,0.0,0.0,0.1095890410958904,0.0,0.0,1.0,0.0,0.0,0.19753086419753085,0,0,292,8185,0.7887599266951741,0.6425023199323353,0.9112637362637362,0.6823316764572978,1.0,0.7893860066634936,0.9121111446692842,0.17708333333333334,0.8459576638612599,0.7806643401835337,0.3008849557522124,3640,4426,119,0.06855938507314654,0.36739659367396593,1.0603922695300758
simple_pc1_gm_gate_t254,score_all_max,0.05,pc3__le,3.281193089810729,120,8477,0.7653651055798042,0.6234851762563026,0.9112637362637362,0.6823316764572978,0.36739659367396593,0.7548930359581247,0.8937555489789879,0.21448863636363635,0.8257406024396315,0.7738629083920564,0.27085201793721975,3640,4426,411,8066,0.7856434416067444,0.5422073346815979,0.9112637362637362,0.6823316764572978,0.0,0.7893860066634936,0.9121111446692842,0.0,0.8459576638612599,0.7806643401835337,0.0,3640,4426,0,119,1.0,0.3333333333333333,0.0,0.0,1.0,0.0,0.0,1.0,0.0,0.0,1.0,0,0,119,292,0.1095890410958904,0.06584362139917695,0.0,0.0,0.1095890410958904,0.0,0.0,1.0,0.0,0.0,0.19753086419753085,0,0,292,8185,0.7887599266951741,0.6425023199323353,0.9112637362637362,0.6823316764572978,1.0,0.7893860066634936,0.9121111446692842,0.17708333333333334,0.8459576638612599,0.7806643401835337,0.3008849557522124,3640,4426,119,0.06855938507314654,0.36739659367396593,1.0603922695300758
simple_pc1_gm_gate_t254,score_all_max,0.05,qrs_visibility__le,0.2800807397384144,120,8477,0.7653651055798042,0.6234851762563026,0.9112637362637362,0.6823316764572978,0.36739659367396593,0.7548930359581247,0.8937555489789879,0.21448863636363635,0.8257406024396315,0.7738629083920564,0.27085201793721975,3640,4426,411,8066,0.7856434416067444,0.5422073346815979,0.9112637362637362,0.6823316764572978,0.0,0.7893860066634936,0.9121111446692842,0.0,0.8459576638612599,0.7806643401835337,0.0,3640,4426,0,119,1.0,0.3333333333333333,0.0,0.0,1.0,0.0,0.0,1.0,0.0,0.0,1.0,0,0,119,292,0.1095890410958904,0.06584362139917695,0.0,0.0,0.1095890410958904,0.0,0.0,1.0,0.0,0.0,0.19753086419753085,0,0,292,8185,0.7887599266951741,0.6425023199323353,0.9112637362637362,0.6823316764572978,1.0,0.7893860066634936,0.9121111446692842,0.17708333333333334,0.8459576638612599,0.7806643401835337,0.3008849557522124,3640,4426,119,0.06855938507314654,0.36739659367396593,1.0603922695300758
simple_pc1_gm_gate_t254,score_all_max,0.05,qrs_visibility__le,0.3732307518330272,120,8477,0.7653651055798042,0.6234851762563026,0.9112637362637362,0.6823316764572978,0.36739659367396593,0.7548930359581247,0.8937555489789879,0.21448863636363635,0.8257406024396315,0.7738629083920564,0.27085201793721975,3640,4426,411,8066,0.7856434416067444,0.5422073346815979,0.9112637362637362,0.6823316764572978,0.0,0.7893860066634936,0.9121111446692842,0.0,0.8459576638612599,0.7806643401835337,0.0,3640,4426,0,119,1.0,0.3333333333333333,0.0,0.0,1.0,0.0,0.0,1.0,0.0,0.0,1.0,0,0,119,292,0.1095890410958904,0.06584362139917695,0.0,0.0,0.1095890410958904,0.0,0.0,1.0,0.0,0.0,0.19753086419753085,0,0,292,8185,0.7887599266951741,0.6425023199323353,0.9112637362637362,0.6823316764572978,1.0,0.7893860066634936,0.9121111446692842,0.17708333333333334,0.8459576638612599,0.7806643401835337,0.3008849557522124,3640,4426,119,0.06855938507314654,0.36739659367396593,1.0603922695300758
simple_pc1_gm_gate_t254,score_core,0.05,none,,120,8477,0.7653651055798042,0.6234851762563026,0.9112637362637362,0.6823316764572978,0.36739659367396593,0.7548930359581247,0.8937555489789879,0.21448863636363635,0.8257406024396315,0.7738629083920564,0.27085201793721975,3640,4426,411,8066,0.7856434416067444,0.5422073346815979,0.9112637362637362,0.6823316764572978,0.0,0.7893860066634936,0.9121111446692842,0.0,0.8459576638612599,0.7806643401835337,0.0,3640,4426,0,119,1.0,0.3333333333333333,0.0,0.0,1.0,0.0,0.0,1.0,0.0,0.0,1.0,0,0,119,292,0.1095890410958904,0.06584362139917695,0.0,0.0,0.1095890410958904,0.0,0.0,1.0,0.0,0.0,0.19753086419753085,0,0,292,8185,0.7887599266951741,0.6425023199323353,0.9112637362637362,0.6823316764572978,1.0,0.7893860066634936,0.9121111446692842,0.17708333333333334,0.8459576638612599,0.7806643401835337,0.3008849557522124,3640,4426,119,0.06855938507314654,0.36739659367396593,1.0603922695300758
simple_pc1_gm_gate_t254,score_core,0.05,pc3__le,3.281193089810729,120,8477,0.7653651055798042,0.6234851762563026,0.9112637362637362,0.6823316764572978,0.36739659367396593,0.7548930359581247,0.8937555489789879,0.21448863636363635,0.8257406024396315,0.7738629083920564,0.27085201793721975,3640,4426,411,8066,0.7856434416067444,0.5422073346815979,0.9112637362637362,0.6823316764572978,0.0,0.7893860066634936,0.9121111446692842,0.0,0.8459576638612599,0.7806643401835337,0.0,3640,4426,0,119,1.0,0.3333333333333333,0.0,0.0,1.0,0.0,0.0,1.0,0.0,0.0,1.0,0,0,119,292,0.1095890410958904,0.06584362139917695,0.0,0.0,0.1095890410958904,0.0,0.0,1.0,0.0,0.0,0.19753086419753085,0,0,292,8185,0.7887599266951741,0.6425023199323353,0.9112637362637362,0.6823316764572978,1.0,0.7893860066634936,0.9121111446692842,0.17708333333333334,0.8459576638612599,0.7806643401835337,0.3008849557522124,3640,4426,119,0.06855938507314654,0.36739659367396593,1.0603922695300758
simple_pc1_gm_gate_t254,score_core,0.05,qrs_visibility__le,0.2800807397384144,120,8477,0.7653651055798042,0.6234851762563026,0.9112637362637362,0.6823316764572978,0.36739659367396593,0.7548930359581247,0.8937555489789879,0.21448863636363635,0.8257406024396315,0.7738629083920564,0.27085201793721975,3640,4426,411,8066,0.7856434416067444,0.5422073346815979,0.9112637362637362,0.6823316764572978,0.0,0.7893860066634936,0.9121111446692842,0.0,0.8459576638612599,0.7806643401835337,0.0,3640,4426,0,119,1.0,0.3333333333333333,0.0,0.0,1.0,0.0,0.0,1.0,0.0,0.0,1.0,0,0,119,292,0.1095890410958904,0.06584362139917695,0.0,0.0,0.1095890410958904,0.0,0.0,1.0,0.0,0.0,0.19753086419753085,0,0,292,8185,0.7887599266951741,0.6425023199323353,0.9112637362637362,0.6823316764572978,1.0,0.7893860066634936,0.9121111446692842,0.17708333333333334,0.8459576638612599,0.7806643401835337,0.3008849557522124,3640,4426,119,0.06855938507314654,0.36739659367396593,1.0603922695300758
simple_pc1_gm_gate_t254,score_core,0.05,qrs_visibility__le,0.3732307518330272,120,8477,0.7653651055798042,0.6234851762563026,0.9112637362637362,0.6823316764572978,0.36739659367396593,0.7548930359581247,0.8937555489789879,0.21448863636363635,0.8257406024396315,0.7738629083920564,0.27085201793721975,3640,4426,411,8066,0.7856434416067444,0.5422073346815979,0.9112637362637362,0.6823316764572978,0.0,0.7893860066634936,0.9121111446692842,0.0,0.8459576638612599,0.7806643401835337,0.0,3640,4426,0,119,1.0,0.3333333333333333,0.0,0.0,1.0,0.0,0.0,1.0,0.0,0.0,1.0,0,0,119,292,0.1095890410958904,0.06584362139917695,0.0,0.0,0.1095890410958904,0.0,0.0,1.0,0.0,0.0,0.19753086419753085,0,0,292,8185,0.7887599266951741,0.6425023199323353,0.9112637362637362,0.6823316764572978,1.0,0.7893860066634936,0.9121111446692842,0.17708333333333334,0.8459576638612599,0.7806643401835337,0.3008849557522124,3640,4426,119,0.06855938507314654,0.36739659367396593,1.0603922695300758
simple_pc1_gm_gate_t254,score_outlier,0.05,none,,120,8477,0.7653651055798042,0.6234851762563026,0.9112637362637362,0.6823316764572978,0.36739659367396593,0.7548930359581247,0.8937555489789879,0.21448863636363635,0.8257406024396315,0.7738629083920564,0.27085201793721975,3640,4426,411,8066,0.7856434416067444,0.5422073346815979,0.9112637362637362,0.6823316764572978,0.0,0.7893860066634936,0.9121111446692842,0.0,0.8459576638612599,0.7806643401835337,0.0,3640,4426,0,119,1.0,0.3333333333333333,0.0,0.0,1.0,0.0,0.0,1.0,0.0,0.0,1.0,0,0,119,292,0.1095890410958904,0.06584362139917695,0.0,0.0,0.1095890410958904,0.0,0.0,1.0,0.0,0.0,0.19753086419753085,0,0,292,8185,0.7887599266951741,0.6425023199323353,0.9112637362637362,0.6823316764572978,1.0,0.7893860066634936,0.9121111446692842,0.17708333333333334,0.8459576638612599,0.7806643401835337,0.3008849557522124,3640,4426,119,0.06855938507314654,0.36739659367396593,1.0603922695300758
simple_pc1_gm_gate_t254,score_outlier,0.05,pc3__le,3.281193089810729,120,8477,0.7653651055798042,0.6234851762563026,0.9112637362637362,0.6823316764572978,0.36739659367396593,0.7548930359581247,0.8937555489789879,0.21448863636363635,0.8257406024396315,0.7738629083920564,0.27085201793721975,3640,4426,411,8066,0.7856434416067444,0.5422073346815979,0.9112637362637362,0.6823316764572978,0.0,0.7893860066634936,0.9121111446692842,0.0,0.8459576638612599,0.7806643401835337,0.0,3640,4426,0,119,1.0,0.3333333333333333,0.0,0.0,1.0,0.0,0.0,1.0,0.0,0.0,1.0,0,0,119,292,0.1095890410958904,0.06584362139917695,0.0,0.0,0.1095890410958904,0.0,0.0,1.0,0.0,0.0,0.19753086419753085,0,0,292,8185,0.7887599266951741,0.6425023199323353,0.9112637362637362,0.6823316764572978,1.0,0.7893860066634936,0.9121111446692842,0.17708333333333334,0.8459576638612599,0.7806643401835337,0.3008849557522124,3640,4426,119,0.06855938507314654,0.36739659367396593,1.0603922695300758
simple_pc1_gm_gate_t254,score_outlier,0.05,qrs_visibility__le,0.2800807397384144,120,8477,0.7653651055798042,0.6234851762563026,0.9112637362637362,0.6823316764572978,0.36739659367396593,0.7548930359581247,0.8937555489789879,0.21448863636363635,0.8257406024396315,0.7738629083920564,0.27085201793721975,3640,4426,411,8066,0.7856434416067444,0.5422073346815979,0.9112637362637362,0.6823316764572978,0.0,0.7893860066634936,0.9121111446692842,0.0,0.8459576638612599,0.7806643401835337,0.0,3640,4426,0,119,1.0,0.3333333333333333,0.0,0.0,1.0,0.0,0.0,1.0,0.0,0.0,1.0,0,0,119,292,0.1095890410958904,0.06584362139917695,0.0,0.0,0.1095890410958904,0.0,0.0,1.0,0.0,0.0,0.19753086419753085,0,0,292,8185,0.7887599266951741,0.6425023199323353,0.9112637362637362,0.6823316764572978,1.0,0.7893860066634936,0.9121111446692842,0.17708333333333334,0.8459576638612599,0.7806643401835337,0.3008849557522124,3640,4426,119,0.06855938507314654,0.36739659367396593,1.0603922695300758
simple_pc1_gm_gate_t254,score_outlier,0.05,qrs_visibility__le,0.3732307518330272,120,8477,0.7653651055798042,0.6234851762563026,0.9112637362637362,0.6823316764572978,0.36739659367396593,0.7548930359581247,0.8937555489789879,0.21448863636363635,0.8257406024396315,0.7738629083920564,0.27085201793721975,3640,4426,411,8066,0.7856434416067444,0.5422073346815979,0.9112637362637362,0.6823316764572978,0.0,0.7893860066634936,0.9121111446692842,0.0,0.8459576638612599,0.7806643401835337,0.0,3640,4426,0,119,1.0,0.3333333333333333,0.0,0.0,1.0,0.0,0.0,1.0,0.0,0.0,1.0,0,0,119,292,0.1095890410958904,0.06584362139917695,0.0,0.0,0.1095890410958904,0.0,0.0,1.0,0.0,0.0,0.19753086419753085,0,0,292,8185,0.7887599266951741,0.6425023199323353,0.9112637362637362,0.6823316764572978,1.0,0.7893860066634936,0.9121111446692842,0.17708333333333334,0.8459576638612599,0.7806643401835337,0.3008849557522124,3640,4426,119,0.06855938507314654,0.36739659367396593,1.0603922695300758
simple_pc1_gm_gate_t254,score_dual,0.03,pc1__ge,-6.099036591134506,135,8477,0.7639495104400141,0.6222771636678566,0.9101648351648352,0.6802982376863985,0.36982968369829683,0.7548416495784916,0.8937370139507272,0.2114047287899861,0.825258438161664,0.7725465041693393,0.26902654867256637,3640,4426,411,8066,0.7840317381601786,0.541573630615439,0.9101648351648352,0.6802982376863985,0.0,0.7893733619251847,0.9118715929739551,0.0,0.8454765854280974,0.7792443064182195,0.0,3640,4426,0,119,1.0,0.3333333333333333,0.0,0.0,1.0,0.0,0.0,1.0,0.0,0.0,1.0,0,0,119,292,0.11301369863013698,0.06769230769230769,0.0,0.0,0.11301369863013698,0.0,0.0,1.0,0.0,0.0,0.20307692307692307,0,0,292,8185,0.7871716554673183,0.6401243552531202,0.9101648351648352,0.6802982376863985,1.0,0.7893733619251847,0.9118715929739551,0.17346938775510204,0.8454765854280974,0.7792443064182195,0.2956521739130435,3640,4426,119,0.07029506570790975,0.36982968369829683,1.0603419545289385
simple_pc1_gm_gate_t254,score_all_max,0.03,pc1__ge,-6.099036591134506,135,8477,0.7639495104400141,0.6222771636678566,0.9101648351648352,0.6802982376863985,0.36982968369829683,0.7548416495784916,0.8937370139507272,0.2114047287899861,0.825258438161664,0.7725465041693393,0.26902654867256637,3640,4426,411,8066,0.7840317381601786,0.541573630615439,0.9101648351648352,0.6802982376863985,0.0,0.7893733619251847,0.9118715929739551,0.0,0.8454765854280974,0.7792443064182195,0.0,3640,4426,0,119,1.0,0.3333333333333333,0.0,0.0,1.0,0.0,0.0,1.0,0.0,0.0,1.0,0,0,119,292,0.11301369863013698,0.06769230769230769,0.0,0.0,0.11301369863013698,0.0,0.0,1.0,0.0,0.0,0.20307692307692307,0,0,292,8185,0.7871716554673183,0.6401243552531202,0.9101648351648352,0.6802982376863985,1.0,0.7893733619251847,0.9118715929739551,0.17346938775510204,0.8454765854280974,0.7792443064182195,0.2956521739130435,3640,4426,119,0.07029506570790975,0.36982968369829683,1.0603419545289385
simple_pc1_gm_gate_t254,score_core,0.03,pc1__ge,-6.099036591134506,135,8477,0.7639495104400141,0.6222771636678566,0.9101648351648352,0.6802982376863985,0.36982968369829683,0.7548416495784916,0.8937370139507272,0.2114047287899861,0.825258438161664,0.7725465041693393,0.26902654867256637,3640,4426,411,8066,0.7840317381601786,0.541573630615439,0.9101648351648352,0.6802982376863985,0.0,0.7893733619251847,0.9118715929739551,0.0,0.8454765854280974,0.7792443064182195,0.0,3640,4426,0,119,1.0,0.3333333333333333,0.0,0.0,1.0,0.0,0.0,1.0,0.0,0.0,1.0,0,0,119,292,0.11301369863013698,0.06769230769230769,0.0,0.0,0.11301369863013698,0.0,0.0,1.0,0.0,0.0,0.20307692307692307,0,0,292,8185,0.7871716554673183,0.6401243552531202,0.9101648351648352,0.6802982376863985,1.0,0.7893733619251847,0.9118715929739551,0.17346938775510204,0.8454765854280974,0.7792443064182195,0.2956521739130435,3640,4426,119,0.07029506570790975,0.36982968369829683,1.0603419545289385
simple_pc1_gm_gate_t254,score_outlier,0.03,pc1__ge,-6.099036591134506,135,8477,0.7639495104400141,0.6222771636678566,0.9101648351648352,0.6802982376863985,0.36982968369829683,0.7548416495784916,0.8937370139507272,0.2114047287899861,0.825258438161664,0.7725465041693393,0.26902654867256637,3640,4426,411,8066,0.7840317381601786,0.541573630615439,0.9101648351648352,0.6802982376863985,0.0,0.7893733619251847,0.9118715929739551,0.0,0.8454765854280974,0.7792443064182195,0.0,3640,4426,0,119,1.0,0.3333333333333333,0.0,0.0,1.0,0.0,0.0,1.0,0.0,0.0,1.0,0,0,119,292,0.11301369863013698,0.06769230769230769,0.0,0.0,0.11301369863013698,0.0,0.0,1.0,0.0,0.0,0.20307692307692307,0,0,292,8185,0.7871716554673183,0.6401243552531202,0.9101648351648352,0.6802982376863985,1.0,0.7893733619251847,0.9118715929739551,0.17346938775510204,0.8454765854280974,0.7792443064182195,0.2956521739130435,3640,4426,119,0.07029506570790975,0.36982968369829683,1.0603419545289385
simple_pc1_gm_gate_t254,score_dual,0.01,pc2__le,10.616705266871826,40,8477,0.7671345995045417,0.6279113915111704,0.9118131868131868,0.6857207410754632,0.36253041362530414,0.7433370660694288,0.8958087367178277,0.2387820512820513,0.8190006169031462,0.7768108523163553,0.28792270531400965,3640,4426,411,8066,0.7877510538060997,0.540910005650867,0.9118131868131868,0.6857207410754632,0.0,0.7776476101218369,0.9133313271140535,0.0,0.8394031360647446,0.7833268808878565,0.0,3640,4426,0,119,1.0,0.3333333333333333,0.0,0.0,1.0,0.0,0.0,1.0,0.0,0.0,1.0,0,0,119,292,0.10273972602739725,0.062111801242236024,0.0,0.0,0.10273972602739725,0.0,0.0,1.0,0.0,0.0,0.18633540372670807,0,0,292,8185,0.7908368967623702,0.6521769528224425,0.9118131868131868,0.6857207410754632,1.0,0.7776476101218369,0.9133313271140535,0.20033670033670034,0.8394031360647446,0.7833268808878565,0.3338008415147265,3640,4426,119,0.05888916439375155,0.36253041362530414,1.0594312031775077
simple_pc1_gm_gate_t254,score_all_max,0.01,pc2__le,10.616705266871826,40,8477,0.7671345995045417,0.6279113915111704,0.9118131868131868,0.6857207410754632,0.36253041362530414,0.7433370660694288,0.8958087367178277,0.2387820512820513,0.8190006169031462,0.7768108523163553,0.28792270531400965,3640,4426,411,8066,0.7877510538060997,0.540910005650867,0.9118131868131868,0.6857207410754632,0.0,0.7776476101218369,0.9133313271140535,0.0,0.8394031360647446,0.7833268808878565,0.0,3640,4426,0,119,1.0,0.3333333333333333,0.0,0.0,1.0,0.0,0.0,1.0,0.0,0.0,1.0,0,0,119,292,0.10273972602739725,0.062111801242236024,0.0,0.0,0.10273972602739725,0.0,0.0,1.0,0.0,0.0,0.18633540372670807,0,0,292,8185,0.7908368967623702,0.6521769528224425,0.9118131868131868,0.6857207410754632,1.0,0.7776476101218369,0.9133313271140535,0.20033670033670034,0.8394031360647446,0.7833268808878565,0.3338008415147265,3640,4426,119,0.05888916439375155,0.36253041362530414,1.0594312031775077
simple_pc1_gm_gate_t254,score_core,0.01,pc2__le,10.616705266871826,40,8477,0.7671345995045417,0.6279113915111704,0.9118131868131868,0.6857207410754632,0.36253041362530414,0.7433370660694288,0.8958087367178277,0.2387820512820513,0.8190006169031462,0.7768108523163553,0.28792270531400965,3640,4426,411,8066,0.7877510538060997,0.540910005650867,0.9118131868131868,0.6857207410754632,0.0,0.7776476101218369,0.9133313271140535,0.0,0.8394031360647446,0.7833268808878565,0.0,3640,4426,0,119,1.0,0.3333333333333333,0.0,0.0,1.0,0.0,0.0,1.0,0.0,0.0,1.0,0,0,119,292,0.10273972602739725,0.062111801242236024,0.0,0.0,0.10273972602739725,0.0,0.0,1.0,0.0,0.0,0.18633540372670807,0,0,292,8185,0.7908368967623702,0.6521769528224425,0.9118131868131868,0.6857207410754632,1.0,0.7776476101218369,0.9133313271140535,0.20033670033670034,0.8394031360647446,0.7833268808878565,0.3338008415147265,3640,4426,119,0.05888916439375155,0.36253041362530414,1.0594312031775077
simple_pc1_gm_gate_t254,score_outlier,0.01,pc2__le,10.616705266871826,40,8477,0.7671345995045417,0.6279113915111704,0.9118131868131868,0.6857207410754632,0.36253041362530414,0.7433370660694288,0.8958087367178277,0.2387820512820513,0.8190006169031462,0.7768108523163553,0.28792270531400965,3640,4426,411,8066,0.7877510538060997,0.540910005650867,0.9118131868131868,0.6857207410754632,0.0,0.7776476101218369,0.9133313271140535,0.0,0.8394031360647446,0.7833268808878565,0.0,3640,4426,0,119,1.0,0.3333333333333333,0.0,0.0,1.0,0.0,0.0,1.0,0.0,0.0,1.0,0,0,119,292,0.10273972602739725,0.062111801242236024,0.0,0.0,0.10273972602739725,0.0,0.0,1.0,0.0,0.0,0.18633540372670807,0,0,292,8185,0.7908368967623702,0.6521769528224425,0.9118131868131868,0.6857207410754632,1.0,0.7776476101218369,0.9133313271140535,0.20033670033670034,0.8394031360647446,0.7833268808878565,0.3338008415147265,3640,4426,119,0.05888916439375155,0.36253041362530414,1.0594312031775077
simple_pc1_gm_gate_t254,score_dual,0.02,pc3__ge,-2.4479177605053817,154,8477,0.7630057803468208,0.6207562632770696,0.9096153846153846,0.6789426118391324,0.36982968369829683,0.7562814070351759,0.894079143112169,0.20596205962059622,0.8258917435769518,0.7717991524335431,0.26457789382071367,3640,4426,411,8066,0.7830399206545996,0.5415528538614864,0.9096153846153846,0.6789426118391324,0.0,0.7911589008363202,0.9119878603945372,0.0,0.846261980830671,0.7783965807537884,0.0,3640,4426,0,119,1.0,0.3333333333333333,0.0,0.0,1.0,0.0,0.0,1.0,0.0,0.0,1.0,0,0,119,292,0.11301369863013698,0.06769230769230769,0.0,0.0,0.11301369863013698,0.0,0.0,1.0,0.0,0.0,0.20307692307692307,0,0,292,8185,0.7861942577886377,0.63783117101359,0.9096153846153846,0.6789426118391324,1.0,0.7911589008363202,0.9119878603945372,0.16879432624113475,0.846261980830671,0.7783965807537884,0.28883495145631066,3640,4426,119,0.07265063228365981,0.36982968369829683,1.0593982244357452
simple_pc1_gm_gate_t254,score_all_max,0.02,pc3__ge,-2.4479177605053817,154,8477,0.7630057803468208,0.6207562632770696,0.9096153846153846,0.6789426118391324,0.36982968369829683,0.7562814070351759,0.894079143112169,0.20596205962059622,0.8258917435769518,0.7717991524335431,0.26457789382071367,3640,4426,411,8066,0.7830399206545996,0.5415528538614864,0.9096153846153846,0.6789426118391324,0.0,0.7911589008363202,0.9119878603945372,0.0,0.846261980830671,0.7783965807537884,0.0,3640,4426,0,119,1.0,0.3333333333333333,0.0,0.0,1.0,0.0,0.0,1.0,0.0,0.0,1.0,0,0,119,292,0.11301369863013698,0.06769230769230769,0.0,0.0,0.11301369863013698,0.0,0.0,1.0,0.0,0.0,0.20307692307692307,0,0,292,8185,0.7861942577886377,0.63783117101359,0.9096153846153846,0.6789426118391324,1.0,0.7911589008363202,0.9119878603945372,0.16879432624113475,0.846261980830671,0.7783965807537884,0.28883495145631066,3640,4426,119,0.07265063228365981,0.36982968369829683,1.0593982244357452
simple_pc1_gm_gate_t254,score_core,0.02,pc3__ge,-2.4479177605053817,154,8477,0.7630057803468208,0.6207562632770696,0.9096153846153846,0.6789426118391324,0.36982968369829683,0.7562814070351759,0.894079143112169,0.20596205962059622,0.8258917435769518,0.7717991524335431,0.26457789382071367,3640,4426,411,8066,0.7830399206545996,0.5415528538614864,0.9096153846153846,0.6789426118391324,0.0,0.7911589008363202,0.9119878603945372,0.0,0.846261980830671,0.7783965807537884,0.0,3640,4426,0,119,1.0,0.3333333333333333,0.0,0.0,1.0,0.0,0.0,1.0,0.0,0.0,1.0,0,0,119,292,0.11301369863013698,0.06769230769230769,0.0,0.0,0.11301369863013698,0.0,0.0,1.0,0.0,0.0,0.20307692307692307,0,0,292,8185,0.7861942577886377,0.63783117101359,0.9096153846153846,0.6789426118391324,1.0,0.7911589008363202,0.9119878603945372,0.16879432624113475,0.846261980830671,0.7783965807537884,0.28883495145631066,3640,4426,119,0.07265063228365981,0.36982968369829683,1.0593982244357452
simple_pc1_gm_gate_t254,score_outlier,0.02,pc3__ge,-2.4479177605053817,154,8477,0.7630057803468208,0.6207562632770696,0.9096153846153846,0.6789426118391324,0.36982968369829683,0.7562814070351759,0.894079143112169,0.20596205962059622,0.8258917435769518,0.7717991524335431,0.26457789382071367,3640,4426,411,8066,0.7830399206545996,0.5415528538614864,0.9096153846153846,0.6789426118391324,0.0,0.7911589008363202,0.9119878603945372,0.0,0.846261980830671,0.7783965807537884,0.0,3640,4426,0,119,1.0,0.3333333333333333,0.0,0.0,1.0,0.0,0.0,1.0,0.0,0.0,1.0,0,0,119,292,0.11301369863013698,0.06769230769230769,0.0,0.0,0.11301369863013698,0.0,0.0,1.0,0.0,0.0,0.20307692307692307,0,0,292,8185,0.7861942577886377,0.63783117101359,0.9096153846153846,0.6789426118391324,1.0,0.7911589008363202,0.9119878603945372,0.16879432624113475,0.846261980830671,0.7783965807537884,0.28883495145631066,3640,4426,119,0.07265063228365981,0.36982968369829683,1.0593982244357452
