base_mode,score_col,score_threshold,gate,gate_threshold,changed_to_bad,test_all_n,test_all_acc,test_all_macro_f1,test_all_good_recall,test_all_medium_recall,test_all_bad_recall,test_all_good_precision,test_all_medium_precision,test_all_bad_precision,test_all_good_f1,test_all_medium_f1,test_all_bad_f1,test_all_support_good,test_all_support_medium,test_all_support_bad,gm_only_n,gm_only_acc,gm_only_macro_f1,gm_only_good_recall,gm_only_medium_recall,gm_only_bad_recall,gm_only_good_precision,gm_only_medium_precision,gm_only_bad_precision,gm_only_good_f1,gm_only_medium_f1,gm_only_bad_f1,gm_only_support_good,gm_only_support_medium,gm_only_support_bad,bad_core_n,bad_core_acc,bad_core_macro_f1,bad_core_good_recall,bad_core_medium_recall,bad_core_bad_recall,bad_core_good_precision,bad_core_medium_precision,bad_core_bad_precision,bad_core_good_f1,bad_core_medium_f1,bad_core_bad_f1,bad_core_support_good,bad_core_support_medium,bad_core_support_bad,bad_outlier_n,bad_outlier_acc,bad_outlier_macro_f1,bad_outlier_good_recall,bad_outlier_medium_recall,bad_outlier_bad_recall,bad_outlier_good_precision,bad_outlier_medium_precision,bad_outlier_bad_precision,bad_outlier_good_f1,bad_outlier_medium_f1,bad_outlier_bad_f1,bad_outlier_support_good,bad_outlier_support_medium,bad_outlier_support_bad,drop_bad_outlier_n,drop_bad_outlier_acc,drop_bad_outlier_macro_f1,drop_bad_outlier_good_recall,drop_bad_outlier_medium_recall,drop_bad_outlier_bad_recall,drop_bad_outlier_good_precision,drop_bad_outlier_medium_precision,drop_bad_outlier_bad_precision,drop_bad_outlier_good_f1,drop_bad_outlier_medium_f1,drop_bad_outlier_bad_f1,drop_bad_outlier_support_good,drop_bad_outlier_support_medium,drop_bad_outlier_support_bad,gm_false_bad_rate,bad_caught_rate,balanced_score
simple_pc1_gm_gate_t254,score_all_max,0.01,pc3__le,2.1506591515994145,1293,8477,0.7534505131532382,0.6272439116119526,0.8854395604395604,0.6638047898779936,0.5498783454987834,0.824718526100307,0.8990208078335373,0.17371252882398155,0.8540010598834128,0.76371198336366,0.26401869158878505,3640,4426,411,8066,0.763823456484007,0.5461208131153096,0.8854395604395604,0.6638047898779936,0.0,0.855588001061853,0.9112903225806451,0.0,0.87025786418253,0.7681045751633987,0.0,3640,4426,0,119,0.9915966386554622,0.33192686357243323,0.0,0.0,0.9915966386554622,0.0,0.0,1.0,0.0,0.0,0.9957805907172996,0,0,119,292,0.3698630136986301,0.18000000000000002,0.0,0.0,0.3698630136986301,0.0,0.0,1.0,0.0,0.0,0.54,0,0,292,8185,0.7671350030543678,0.6060466984742757,0.8854395604395604,0.6638047898779936,0.9915966386554622,0.855588001061853,0.9110077519379844,0.0989103101424979,0.87025786418253,0.7680041824598092,0.1798780487804878,3640,4426,119,0.13327547731217457,0.5498783454987834,1.1501268819309263
simple_pc1_gm_gate_t254,score_all_max,0.01,pc3__le,3.281193089810729,1437,8477,0.7375250678306005,0.6136566585450681,0.8854395604395604,0.6330772706732942,0.5523114355231143,0.8261984106639323,0.8949217502395401,0.15709342560553632,0.854793793926535,0.741564112743152,0.24461206896551724,3640,4426,411,8066,0.7469625588891644,0.5389629688245605,0.8854395604395604,0.6330772706732942,0.0,0.8571808510638298,0.9073834196891192,0.0,0.8710810810810811,0.7458078253926005,0.0,3640,4426,0,119,0.9915966386554622,0.33192686357243323,0.0,0.0,0.9915966386554622,0.0,0.0,1.0,0.0,0.0,0.9957805907172996,0,0,119,292,0.3732876712328767,0.18121363258520365,0.0,0.0,0.3732876712328767,0.0,0.0,1.0,0.0,0.0,0.543640897755611,0,0,292,8185,0.750519242516799,0.5929963255433964,0.8854395604395604,0.6330772706732942,0.9915966386554622,0.8571808510638298,0.9070896730333441,0.08832335329341318,0.8710810810810811,0.7457085828343314,0.16219931271477664,3640,4426,119,0.15100421522439872,0.5523114355231143,1.1355667167469414
simple_pc1_gm_gate_t254,score_all_max,0.01,qrs_visibility__le,0.2800807397384144,1449,8477,0.7361094726908104,0.6124555167550915,0.885989010989011,0.6299141436963398,0.5523114355231143,0.8262874711760184,0.8944497914661533,0.15579958819492107,0.8550974413363384,0.7392284237040965,0.2430406852248394,3640,4426,411,8066,0.745474832630796,0.5382842595094419,0.885989010989011,0.6299141436963398,0.0,0.8572567783094099,0.9069616135328562,0.0,0.871386111861659,0.7434666666666667,0.0,3640,4426,0,119,0.9915966386554622,0.33192686357243323,0.0,0.0,0.9915966386554622,0.0,0.0,1.0,0.0,0.0,0.9957805907172996,0,0,119,292,0.3732876712328767,0.18121363258520365,0.0,0.0,0.3732876712328767,0.0,0.0,1.0,0.0,0.0,0.543640897755611,0,0,292,8185,0.7490531459987783,0.5918753972751828,0.885989010989011,0.6299141436963398,0.9915966386554622,0.8572567783094099,0.9066666666666666,0.08753709198813056,0.871386111861659,0.743367550993201,0.1608725289706885,3640,4426,119,0.15249194148276718,0.5523114355231143,1.1341511216071514
simple_pc1_gm_gate_t254,score_all_max,0.01,qrs_visibility__le,0.3732307518330272,1449,8477,0.7361094726908104,0.6124555167550915,0.885989010989011,0.6299141436963398,0.5523114355231143,0.8262874711760184,0.8944497914661533,0.15579958819492107,0.8550974413363384,0.7392284237040965,0.2430406852248394,3640,4426,411,8066,0.745474832630796,0.5382842595094419,0.885989010989011,0.6299141436963398,0.0,0.8572567783094099,0.9069616135328562,0.0,0.871386111861659,0.7434666666666667,0.0,3640,4426,0,119,0.9915966386554622,0.33192686357243323,0.0,0.0,0.9915966386554622,0.0,0.0,1.0,0.0,0.0,0.9957805907172996,0,0,119,292,0.3732876712328767,0.18121363258520365,0.0,0.0,0.3732876712328767,0.0,0.0,1.0,0.0,0.0,0.543640897755611,0,0,292,8185,0.7490531459987783,0.5918753972751828,0.885989010989011,0.6299141436963398,0.9915966386554622,0.8572567783094099,0.9066666666666666,0.08753709198813056,0.871386111861659,0.743367550993201,0.1608725289706885,3640,4426,119,0.15249194148276718,0.5523114355231143,1.1341511216071514
simple_pc1_gm_gate_t254,score_all_max,0.01,none,,1452,8477,0.7357555739058629,0.6121686798878696,0.8854395604395604,0.6296882060551288,0.5523114355231143,0.8261984106639323,0.8944159178433889,0.15547945205479452,0.854793793926535,0.7390612569610183,0.2426509887760556,3640,4426,411,8066,0.7451029010662038,0.5381267292095403,0.8854395604395604,0.6296882060551288,0.0,0.8571808510638298,0.9069313374552554,0.0,0.8710810810810811,0.7432991065475397,0.0,3640,4426,0,119,0.9915966386554622,0.33192686357243323,0.0,0.0,0.9915966386554622,0.0,0.0,1.0,0.0,0.0,0.9957805907172996,0,0,119,292,0.3732876712328767,0.18121363258520365,0.0,0.0,0.3732876712328767,0.0,0.0,1.0,0.0,0.0,0.543640897755611,0,0,292,8185,0.748686621869273,0.5916084329227186,0.8854395604395604,0.6296882060551288,0.9915966386554622,0.8571808510638298,0.9066363044892648,0.08734270910436713,0.8710810810810811,0.7432,0.16054421768707483,3640,4426,119,0.1528638730473593,0.5523114355231143,1.1337972228222037
simple_pc1_gm_gate_t254,score_core,0.01,pc3__le,2.1506591515994145,1153,8477,0.7546301757697299,0.623800182948477,0.8895604395604395,0.6674197921373701,0.49878345498783455,0.8066766317887394,0.8946093276801939,0.17657192075796727,0.8460935458583747,0.7644927536231884,0.2608142493638677,3640,4426,411,8066,0.7676667493181255,0.5443745133656446,0.8895604395604395,0.6674197921373701,0.0,0.8386428386428386,0.9092028316405047,0.0,0.8633515531262498,0.769771986970684,0.0,3640,4426,0,119,0.9747899159663865,0.32907801418439714,0.0,0.0,0.9747899159663865,0.0,0.0,1.0,0.0,0.0,0.9872340425531915,0,0,119,292,0.3047945205479452,0.1557305336832896,0.0,0.0,0.3047945205479452,0.0,0.0,1.0,0.0,0.0,0.4671916010498688,0,0,292,8185,0.7706780696395846,0.6092056867003484,0.8895604395604395,0.6674197921373701,0.9747899159663865,0.8386428386428386,0.9083640836408364,0.10820895522388059,0.8633515531262498,0.7694712164626205,0.19479429051217464,3640,4426,119,0.11852219191668734,0.49878345498783455,1.1211420504926217
simple_pc1_gm_gate_t254,score_all_max,0.02,pc3__le,2.1506591515994145,1179,8477,0.7555739058629232,0.6230683062368602,0.8903846153846153,0.6692272932670583,0.49148418491484186,0.8137082601054482,0.8956758391291201,0.17017691659646167,0.8503213957759412,0.7660675029096081,0.2528160200250313,3640,4426,411,8066,0.7690304983882965,0.5464591975544976,0.8903846153846153,0.6692272932670583,0.0,0.8459932132602453,0.9113846153846153,0.0,0.8676214696827734,0.7717561229807192,0.0,3640,4426,0,119,0.9411764705882353,0.32323232323232326,0.0,0.0,0.9411764705882353,0.0,0.0,1.0,0.0,0.0,0.9696969696969697,0,0,119,292,0.3082191780821918,0.15706806282722513,0.0,0.0,0.3082191780821918,0.0,0.0,1.0,0.0,0.0,0.4712041884816754,0,0,292,8185,0.7715332926084301,0.6076283233657408,0.8903846153846153,0.6692272932670583,0.9411764705882353,0.8459932132602453,0.9094258520110531,0.10209662716499544,0.8676214696827734,0.7710529740986594,0.18421052631578946,3640,4426,119,0.12211753037441112,0.49148418491484186,1.1150027178836819
simple_pc1_gm_gate_t254,score_core,0.01,pc3__le,3.281193089810729,1268,8477,0.7420077857732689,0.6126858337347802,0.8895604395604395,0.6430185268865793,0.5012165450121655,0.8078842315369261,0.891324772940808,0.1614420062695925,0.8467573221757322,0.7470796692479328,0.24422050978067575,3640,4426,411,8066,0.7542772129928094,0.5387520846680484,0.8895604395604395,0.6430185268865793,0.0,0.8399481193255512,0.9060808659662528,0.0,0.8640426951300867,0.7522135588740584,0.0,3640,4426,0,119,0.9747899159663865,0.32907801418439714,0.0,0.0,0.9747899159663865,0.0,0.0,1.0,0.0,0.0,0.9872340425531915,0,0,119,292,0.3082191780821918,0.15706806282722513,0.0,0.0,0.3082191780821918,0.0,0.0,1.0,0.0,0.0,0.4712041884816754,0,0,292,8185,0.7574832009773976,0.5979119762180772,0.8895604395604395,0.6430185268865793,0.9747899159663865,0.8399481193255512,0.9052162849872774,0.09780775716694773,0.8640426951300867,0.7519154557463672,0.17777777777777778,3640,4426,119,0.1326555913711877,0.5012165450121655,1.1098849406348135
simple_pc1_gm_gate_t254,score_all_max,0.01,pc1__ge,-6.099036591134506,1318,8477,0.7346938775510204,0.6076039515668595,0.8876373626373626,0.6296882060551288,0.5109489051094891,0.8007434944237918,0.8944159178433889,0.1583710407239819,0.8419543973941368,0.7390612569610183,0.24179620034542315,3640,4426,411,8066,0.7460947185717828,0.5343168544152302,0.8876373626373626,0.6296882060551288,0.0,0.8333763218983751,0.9069313374552554,0.0,0.8596514566981509,0.7432991065475397,0.0,3640,4426,0,119,0.9915966386554622,0.33192686357243323,0.0,0.0,0.9915966386554622,0.0,0.0,1.0,0.0,0.0,0.9957805907172996,0,0,119,292,0.3150684931506849,0.15972222222222224,0.0,0.0,0.3150684931506849,0.0,0.0,1.0,0.0,0.0,0.4791666666666667,0,0,292,8185,0.7496640195479536,0.5924262185051979,0.8876373626373626,0.6296882060551288,0.9915966386554622,0.8333763218983751,0.9066363044892648,0.09562398703403566,0.8596514566981509,0.7432,0.17442719881744273,3640,4426,119,0.1383585420282668,0.5109489051094891,1.1095257641102636
simple_pc1_gm_gate_t254,score_core,0.01,qrs_visibility__le,0.2800807397384144,1277,8477,0.7409460894184263,0.6117504968775201,0.8901098901098901,0.640533212833258,0.5012165450121655,0.8079800498753117,0.8909490886235072,0.16031128404669262,0.8470588235294118,0.7452681388012619,0.2429245283018868,3640,4426,411,8066,0.7531614182990329,0.5382475912546066,0.8901098901098901,0.640533212833258,0.0,0.8400311122634172,0.9057507987220448,0.0,0.8643457382953181,0.7503970354685019,0.0,3640,4426,0,119,0.9747899159663865,0.32907801418439714,0.0,0.0,0.9747899159663865,0.0,0.0,1.0,0.0,0.0,0.9872340425531915,0,0,119,292,0.3082191780821918,0.15706806282722513,0.0,0.0,0.3082191780821918,0.0,0.0,1.0,0.0,0.0,0.4712041884816754,0,0,292,8185,0.7563836285888821,0.5970016931781316,0.8901098901098901,0.640533212833258,0.9747899159663865,0.8400311122634172,0.9048834982444941,0.09707112970711297,0.8643457382953181,0.7500992194734754,0.1765601217656012,3640,4426,119,0.13377138606496405,0.5012165450121655,1.108823244279971
simple_pc1_gm_gate_t254,score_core,0.01,qrs_visibility__le,0.3732307518330272,1277,8477,0.7409460894184263,0.6117504968775201,0.8901098901098901,0.640533212833258,0.5012165450121655,0.8079800498753117,0.8909490886235072,0.16031128404669262,0.8470588235294118,0.7452681388012619,0.2429245283018868,3640,4426,411,8066,0.7531614182990329,0.5382475912546066,0.8901098901098901,0.640533212833258,0.0,0.8400311122634172,0.9057507987220448,0.0,0.8643457382953181,0.7503970354685019,0.0,3640,4426,0,119,0.9747899159663865,0.32907801418439714,0.0,0.0,0.9747899159663865,0.0,0.0,1.0,0.0,0.0,0.9872340425531915,0,0,119,292,0.3082191780821918,0.15706806282722513,0.0,0.0,0.3082191780821918,0.0,0.0,1.0,0.0,0.0,0.4712041884816754,0,0,292,8185,0.7563836285888821,0.5970016931781316,0.8901098901098901,0.640533212833258,0.9747899159663865,0.8400311122634172,0.9048834982444941,0.09707112970711297,0.8643457382953181,0.7500992194734754,0.1765601217656012,3640,4426,119,0.13377138606496405,0.5012165450121655,1.108823244279971
simple_pc1_gm_gate_t254,score_core,0.01,none,,1279,8477,0.740710156895128,0.6115546196974746,0.8895604395604395,0.640533212833258,0.5012165450121655,0.8078842315369261,0.8909490886235072,0.16006216006216006,0.8467573221757322,0.7452681388012619,0.24263839811542992,3640,4426,411,8066,0.7529134639226382,0.5381465768661963,0.8895604395604395,0.640533212833258,0.0,0.8399481193255512,0.9057507987220448,0.0,0.8640426951300867,0.7503970354685019,0.0,3640,4426,0,119,0.9747899159663865,0.32907801418439714,0.0,0.0,0.9747899159663865,0.0,0.0,1.0,0.0,0.0,0.9872340425531915,0,0,119,292,0.3082191780821918,0.15706806282722513,0.0,0.0,0.3082191780821918,0.0,0.0,1.0,0.0,0.0,0.4712041884816754,0,0,292,8185,0.756139279169212,0.5968112359722106,0.8895604395604395,0.640533212833258,0.9747899159663865,0.8399481193255512,0.9048834982444941,0.09690893901420217,0.8640426951300867,0.7500992194734754,0.1762917933130699,3640,4426,119,0.1340193404413588,0.5012165450121655,1.1085873117566727
simple_pc1_gm_gate_t254,score_all_max,0.02,pc3__le,3.281193089810729,1297,8477,0.7427155833431639,0.6120198960897133,0.8903846153846153,0.6443741527338455,0.49391727493917276,0.8151408450704225,0.8923654568210263,0.15555555555555556,0.8511029411764706,0.7483600104959328,0.2365967365967366,3640,4426,411,8066,0.7553930076865857,0.5407780591176355,0.8903846153846153,0.6443741527338455,0.0,0.8475418410041841,0.9082802547770701,0.0,0.8684351554126474,0.753899021940259,0.0,3640,4426,0,119,0.9411764705882353,0.32323232323232326,0.0,0.0,0.9411764705882353,0.0,0.0,1.0,0.0,0.0,0.9696969696969697,0,0,119,292,0.3116438356164384,0.15839860748476936,0.0,0.0,0.3116438356164384,0.0,0.0,1.0,0.0,0.0,0.4751958224543081,0,0,292,8185,0.758094074526573,0.5965597771678491,0.8903846153846153,0.6443741527338455,0.9411764705882353,0.8475418410041841,0.9062599300921512,0.09225700164744646,0.8684351554126474,0.7532021655882741,0.16804201050262565,3640,4426,119,0.1366228613935036,0.49391727493917276,1.1035096755025755
simple_pc1_gm_gate_t254,score_all_max,0.02,qrs_visibility__le,0.2800807397384144,1307,8477,0.7415359207266722,0.6110102583200785,0.8906593406593407,0.6418888386805242,0.49391727493917276,0.8151873271310033,0.8919937205651491,0.1543726235741445,0.851253774451884,0.7465510445407962,0.23522595596755505,3640,4426,411,8066,0.7541532358046119,0.5402238167407901,0.8906593406593407,0.6418888386805242,0.0,0.8475816993464053,0.9079578139980825,0.0,0.8685867381111856,0.7520847121111847,0.0,3640,4426,0,119,0.9411764705882353,0.32323232323232326,0.0,0.0,0.9411764705882353,0.0,0.0,1.0,0.0,0.0,0.9696969696969697,0,0,119,292,0.3116438356164384,0.15839860748476936,0.0,0.0,0.3116438356164384,0.0,0.0,1.0,0.0,0.0,0.4751958224543081,0,0,292,8185,0.7568723274282224,0.595588675535339,0.8906593406593407,0.6418888386805242,0.9411764705882353,0.8475816993464053,0.9059311224489796,0.0915032679738562,0.8685867381111856,0.7513885215551441,0.16679076693968728,3640,4426,119,0.13786263327547732,0.49391727493917276,1.1023300128860838
simple_pc1_gm_gate_t254,score_all_max,0.02,qrs_visibility__le,0.3732307518330272,1307,8477,0.7415359207266722,0.6110102583200785,0.8906593406593407,0.6418888386805242,0.49391727493917276,0.8151873271310033,0.8919937205651491,0.1543726235741445,0.851253774451884,0.7465510445407962,0.23522595596755505,3640,4426,411,8066,0.7541532358046119,0.5402238167407901,0.8906593406593407,0.6418888386805242,0.0,0.8475816993464053,0.9079578139980825,0.0,0.8685867381111856,0.7520847121111847,0.0,3640,4426,0,119,0.9411764705882353,0.32323232323232326,0.0,0.0,0.9411764705882353,0.0,0.0,1.0,0.0,0.0,0.9696969696969697,0,0,119,292,0.3116438356164384,0.15839860748476936,0.0,0.0,0.3116438356164384,0.0,0.0,1.0,0.0,0.0,0.4751958224543081,0,0,292,8185,0.7568723274282224,0.595588675535339,0.8906593406593407,0.6418888386805242,0.9411764705882353,0.8475816993464053,0.9059311224489796,0.0915032679738562,0.8685867381111856,0.7513885215551441,0.16679076693968728,3640,4426,119,0.13786263327547732,0.49391727493917276,1.1023300128860838
simple_pc1_gm_gate_t254,score_all_max,0.02,none,,1308,8477,0.741417954465023,0.6109145789101948,0.8903846153846153,0.6418888386805242,0.49391727493917276,0.8151408450704225,0.8919937205651491,0.15425531914893617,0.8511029411764706,0.7465510445407962,0.2350897510133179,3640,4426,411,8066,0.7540292586164146,0.5401732891746107,0.8903846153846153,0.6418888386805242,0.0,0.8475418410041841,0.9079578139980825,0.0,0.8684351554126474,0.7520847121111847,0.0,3640,4426,0,119,0.9411764705882353,0.32323232323232326,0.0,0.0,0.9411764705882353,0.0,0.0,1.0,0.0,0.0,0.9696969696969697,0,0,119,292,0.3116438356164384,0.15839860748476936,0.0,0.0,0.3116438356164384,0.0,0.0,1.0,0.0,0.0,0.4751958224543081,0,0,292,8185,0.7567501527183873,0.5954967812114861,0.8903846153846153,0.6418888386805242,0.9411764705882353,0.8475418410041841,0.9059311224489796,0.09142857142857143,0.8684351554126474,0.7513885215551441,0.16666666666666666,3640,4426,119,0.1379866104636747,0.49391727493917276,1.1022120466244345
simple_pc1_gm_gate_t254,score_all_max,0.01,pc3__ge,-2.4479177605053817,1162,8477,0.7368172702607054,0.6091425335506913,0.8945054945054945,0.6296882060551288,0.49391727493917276,0.7769028871391076,0.8944159178433889,0.1735042735042735,0.8315668496999106,0.7390612569610183,0.2567994939911448,3640,4426,411,8066,0.749194148276717,0.5309214258106548,0.8945054945054945,0.6296882060551288,0.0,0.8087431693989071,0.9069313374552554,0.0,0.8494651708844247,0.7432991065475397,0.0,3640,4426,0,119,0.9915966386554622,0.33192686357243323,0.0,0.0,0.9915966386554622,0.0,0.0,1.0,0.0,0.0,0.9957805907172996,0,0,119,292,0.2910958904109589,0.15030946065428824,0.0,0.0,0.2910958904109589,0.0,0.0,1.0,0.0,0.0,0.4509283819628647,0,0,292,8185,0.7527183872938302,0.5962261533069898,0.8945054945054945,0.6296882060551288,0.9915966386554622,0.8087431693989071,0.9066363044892648,0.10875576036866359,0.8494651708844247,0.7432,0.19601328903654486,3640,4426,119,0.11988594098685842,0.49391727493917276,1.102092195849379
simple_pc1_gm_gate_t254,score_all_max,0.01,pc1__ge,-5.359154835604749,1152,8477,0.7359915064291612,0.6083993989379097,0.8928571428571429,0.6296882060551288,0.49148418491484186,0.7736253273030231,0.8944159178433889,0.17413793103448275,0.8289758959316413,0.7390612569610183,0.25716104392106937,3640,4426,411,8066,0.7484502851475329,0.530068214668941,0.8928571428571429,0.6296882060551288,0.0,0.80545229244114,0.9069313374552554,0.0,0.8469055374592834,0.7432991065475397,0.0,3640,4426,0,119,0.9915966386554622,0.33192686357243323,0.0,0.0,0.9915966386554622,0.0,0.0,1.0,0.0,0.0,0.9957805907172996,0,0,119,292,0.2876712328767123,0.14893617021276595,0.0,0.0,0.2876712328767123,0.0,0.0,1.0,0.0,0.0,0.44680851063829785,0,0,292,8185,0.7519853390348198,0.5958650257360791,0.8928571428571429,0.6296882060551288,0.9915966386554622,0.80545229244114,0.9066363044892648,0.10966542750929369,0.8469055374592834,0.7432,0.19748953974895397,3640,4426,119,0.11877014629308208,0.49148418491484186,1.099901151879182
simple_pc1_gm_gate_t254,score_all_max,0.03,pc3__le,2.1506591515994145,1113,8477,0.7573433997876607,0.6207603802020564,0.8936813186813187,0.6730682331676457,0.45742092457420924,0.8077973677675689,0.8948633223190147,0.16770740410347904,0.8485718012260337,0.7682785299806576,0.2454308093994778,3640,4426,411,8066,0.7726258368460204,0.5470861265063103,0.8936813186813187,0.6730682331676457,0.0,0.8416558861578266,0.9115667074663403,0.0,0.8668887408394403,0.7743696386794905,0.0,3640,4426,0,119,0.9243697478991597,0.32023289665211063,0.0,0.0,0.9243697478991597,0.0,0.0,1.0,0.0,0.0,0.9606986899563319,0,0,119,292,0.2671232876712329,0.14054054054054055,0.0,0.0,0.2671232876712329,0.0,0.0,1.0,0.0,0.0,0.42162162162162165,0,0,292,8185,0.7748320097739768,0.6098941227321845,0.8936813186813187,0.6730682331676457,0.9243697478991597,0.8416558861578266,0.9090631675312786,0.10546500479386385,0.8668887408394403,0.773464883811502,0.18932874354561102,3640,4426,119,0.11567071658814779,0.45742092457420924,1.0961646787241928
simple_pc1_gm_gate_t254,score_core,0.01,pc1__ge,-6.099036591134506,1166,8477,0.7402382918485313,0.6088510781684854,0.8917582417582418,0.640533212833258,0.4720194647201946,0.7876728949284154,0.8909490886235072,0.16524701873935263,0.8364901430228063,0.7452681388012619,0.244794952681388,3640,4426,411,8066,0.7539052814282172,0.5350191276732815,0.8917582417582418,0.640533212833258,0.0,0.820525783619818,0.9057507987220448,0.0,0.8546603475513428,0.7503970354685019,0.0,3640,4426,0,119,0.9747899159663865,0.32907801418439714,0.0,0.0,0.9747899159663865,0.0,0.0,1.0,0.0,0.0,0.9872340425531915,0,0,119,292,0.2671232876712329,0.14054054054054055,0.0,0.0,0.2671232876712329,0.0,0.0,1.0,0.0,0.0,0.42162162162162165,0,0,292,8185,0.7571166768478925,0.5985686896941438,0.8917582417582418,0.640533212833258,0.9747899159663865,0.820525783619818,0.9048834982444941,0.10583941605839416,0.8546603475513428,0.7500992194734754,0.19094650205761318,3640,4426,119,0.12149764443342426,0.4720194647201946,1.0917320850462422
simple_pc1_gm_gate_t254,score_all_max,0.03,pc3__le,3.281193089810729,1220,8477,0.7456647398843931,0.6107170700966393,0.8936813186813187,0.6504744690465432,0.45985401459854014,0.809002735637901,0.8918835192069393,0.15390879478827363,0.8492363921159117,0.7522863862032924,0.23062843197071384,3640,4426,411,8066,0.7602281180262832,0.5419375086783291,0.8936813186813187,0.6504744690465432,0.0,0.8429644985747603,0.9087752525252525,0.0,0.867582344312575,0.7582301817224124,0.0,3640,4426,0,119,0.9243697478991597,0.32023289665211063,0.0,0.0,0.9243697478991597,0.0,0.0,1.0,0.0,0.0,0.9606986899563319,0,0,119,292,0.2705479452054795,0.14195867026055706,0.0,0.0,0.2705479452054795,0.0,0.0,1.0,0.0,0.0,0.42587601078167114,0,0,292,8185,0.7626145387904704,0.5994721844851626,0.8936813186813187,0.6504744690465432,0.9243697478991597,0.8429644985747603,0.9062008183821215,0.09573542210617929,0.867582344312575,0.7573326318558464,0.17350157728706625,3640,4426,119,0.1288122985370692,0.45985401459854014,1.085851298959578
simple_pc1_gm_gate_t254,score_core,0.01,pc3__ge,-2.4479177605053817,1015,8477,0.7422437182965672,0.6112705007099382,0.8980769230769231,0.640533212833258,0.45742092457420924,0.7652153558052435,0.8909490886235072,0.18377321603128055,0.8263397371081901,0.7452681388012619,0.26220362622036264,3640,4426,411,8066,0.7567567567567568,0.5316635857366263,0.8980769230769231,0.640533212833258,0.0,0.7971226530114606,0.9057507987220448,0.0,0.844593721741377,0.7503970354685019,0.0,3640,4426,0,119,0.9747899159663865,0.32907801418439714,0.0,0.0,0.9747899159663865,0.0,0.0,1.0,0.0,0.0,0.9872340425531915,0,0,119,292,0.2465753424657534,0.13186813186813187,0.0,0.0,0.2465753424657534,0.0,0.0,1.0,0.0,0.0,0.3956043956043956,0,0,292,8185,0.7599266951740989,0.6038384570404648,0.8980769230769231,0.640533212833258,0.9747899159663865,0.7971226530114606,0.9048834982444941,0.12197686645636173,0.844593721741377,0.7500992194734754,0.21682242990654205,3640,4426,119,0.10352095214480536,0.45742092457420924,1.0855458306623613
simple_pc1_gm_gate_t254,score_all_max,0.03,none,,1230,8477,0.7444850772679014,0.6097067787257598,0.8936813186813187,0.6482150926344329,0.45985401459854014,0.809002735637901,0.8915475450590429,0.15266558966074315,0.8492363921159117,0.750654107796965,0.22922983626440266,3640,4426,411,8066,0.7589883461443094,0.5413917237722647,0.8936813186813187,0.6482150926344329,0.0,0.8429644985747603,0.9084863837872071,0.0,0.867582344312575,0.7565928270042194,0.0,3640,4426,0,119,0.9243697478991597,0.32023289665211063,0.0,0.0,0.9243697478991597,0.0,0.0,1.0,0.0,0.0,0.9606986899563319,0,0,119,292,0.2705479452054795,0.14195867026055706,0.0,0.0,0.2705479452054795,0.0,0.0,1.0,0.0,0.0,0.42587601078167114,0,0,292,8185,0.7613927916921197,0.5984741183653065,0.8936813186813187,0.6482150926344329,0.9243697478991597,0.8429644985747603,0.905904641616672,0.09490940465918896,0.867582344312575,0.755696035822468,0.17214397496087636,3640,4426,119,0.1300520704190429,0.45985401459854014,1.0846716363430864
simple_pc1_gm_gate_t254,score_all_max,0.03,qrs_visibility__le,0.2800807397384144,1230,8477,0.7444850772679014,0.6097067787257598,0.8936813186813187,0.6482150926344329,0.45985401459854014,0.809002735637901,0.8915475450590429,0.15266558966074315,0.8492363921159117,0.750654107796965,0.22922983626440266,3640,4426,411,8066,0.7589883461443094,0.5413917237722647,0.8936813186813187,0.6482150926344329,0.0,0.8429644985747603,0.9084863837872071,0.0,0.867582344312575,0.7565928270042194,0.0,3640,4426,0,119,0.9243697478991597,0.32023289665211063,0.0,0.0,0.9243697478991597,0.0,0.0,1.0,0.0,0.0,0.9606986899563319,0,0,119,292,0.2705479452054795,0.14195867026055706,0.0,0.0,0.2705479452054795,0.0,0.0,1.0,0.0,0.0,0.42587601078167114,0,0,292,8185,0.7613927916921197,0.5984741183653065,0.8936813186813187,0.6482150926344329,0.9243697478991597,0.8429644985747603,0.905904641616672,0.09490940465918896,0.867582344312575,0.755696035822468,0.17214397496087636,3640,4426,119,0.1300520704190429,0.45985401459854014,1.0846716363430864
simple_pc1_gm_gate_t254,score_all_max,0.03,qrs_visibility__le,0.3732307518330272,1230,8477,0.7444850772679014,0.6097067787257598,0.8936813186813187,0.6482150926344329,0.45985401459854014,0.809002735637901,0.8915475450590429,0.15266558966074315,0.8492363921159117,0.750654107796965,0.22922983626440266,3640,4426,411,8066,0.7589883461443094,0.5413917237722647,0.8936813186813187,0.6482150926344329,0.0,0.8429644985747603,0.9084863837872071,0.0,0.867582344312575,0.7565928270042194,0.0,3640,4426,0,119,0.9243697478991597,0.32023289665211063,0.0,0.0,0.9243697478991597,0.0,0.0,1.0,0.0,0.0,0.9606986899563319,0,0,119,292,0.2705479452054795,0.14195867026055706,0.0,0.0,0.2705479452054795,0.0,0.0,1.0,0.0,0.0,0.42587601078167114,0,0,292,8185,0.7613927916921197,0.5984741183653065,0.8936813186813187,0.6482150926344329,0.9243697478991597,0.8429644985747603,0.905904641616672,0.09490940465918896,0.867582344312575,0.755696035822468,0.17214397496087636,3640,4426,119,0.1300520704190429,0.45985401459854014,1.0846716363430864
simple_pc1_gm_gate_t254,score_all_max,0.05,pc3__le,2.1506591515994145,1060,8477,0.7588769611890999,0.6196516204313034,0.8964285714285715,0.6757794848621781,0.43552311435523117,0.8032988675529296,0.8936360920227069,0.16760299625468164,0.8473123863931447,0.7695870320339637,0.2420554428668019,3640,4426,411,8066,0.7753533349863625,0.5473847154694619,0.8964285714285715,0.6757794848621781,0.0,0.8375256673511293,0.9116123133191101,0.0,0.8659766454352441,0.7761775009731413,0.0,3640,4426,0,119,0.9159663865546218,0.31871345029239767,0.0,0.0,0.9159663865546218,0.0,0.0,1.0,0.0,0.0,0.956140350877193,0,0,119,292,0.23972602739726026,0.1289134438305709,0.0,0.0,0.23972602739726026,0.0,0.0,1.0,0.0,0.0,0.3867403314917127,0,0,292,8185,0.7773976786805131,0.612104655494758,0.8964285714285715,0.6757794848621781,0.9159663865546218,0.8375256673511293,0.9088422971741112,0.1092184368737475,0.8659766454352441,0.7751716988467021,0.19516562220232767,3640,4426,119,0.11021572030746343,0.43552311435523117,1.0846639133062133
simple_pc1_gm_gate_t254,score_core,0.01,pc1__ge,-5.359154835604749,1017,8477,0.7415359207266722,0.6103327571052422,0.8967032967032967,0.640533212833258,0.45498783454987834,0.7644028103044497,0.8909490886235072,0.1824390243902439,0.8252844500632112,0.7452681388012619,0.2604456824512535,3640,4426,411,8066,0.7561368708157699,0.5313419600437351,0.8967032967032967,0.640533212833258,0.0,0.7964860907759883,0.9057507987220448,0.0,0.8436288446627035,0.7503970354685019,0.0,3640,4426,0,119,0.9747899159663865,0.32907801418439714,0.0,0.0,0.9747899159663865,0.0,0.0,1.0,0.0,0.0,0.9872340425531915,0,0,119,292,0.24315068493150685,0.13039485766758493,0.0,0.0,0.24315068493150685,0.0,0.0,1.0,0.0,0.0,0.39118457300275483,0,0,292,8185,0.7593158216249236,0.603314760117465,0.8967032967032967,0.640533212833258,0.9747899159663865,0.7964860907759883,0.9048834982444941,0.12159329140461216,0.8436288446627035,0.7500992194734754,0.21621621621621623,3640,4426,119,0.10389288370939748,0.45498783454987834,1.0834727529538135
simple_pc1_gm_gate_t254,score_all_max,0.01,pc3__ge,-1.610530736647411,911,8477,0.7403562581101805,0.6120452034483969,0.9074175824175824,0.6296882060551288,0.45255474452554745,0.743751407340689,0.8941289701636189,0.20239390642002175,0.8174730850142309,0.7389632772106589,0.2796992481203007,3640,4426,411,8066,0.7550210761219935,0.5265027978225092,0.9074175824175824,0.6296882060551288,0.0,0.7755341629490491,0.9066363044892648,0.0,0.8363083934675275,0.7432,0.0,3640,4426,0,119,0.9915966386554622,0.33192686357243323,0.0,0.0,0.9915966386554622,0.0,0.0,1.0,0.0,0.0,0.9957805907172996,0,0,119,292,0.2328767123287671,0.1259259259259259,0.0,0.0,0.2328767123287671,0.0,0.0,1.0,0.0,0.0,0.37777777777777777,0,0,292,8185,0.7584605986560782,0.6075694274723474,0.9074175824175824,0.6296882060551288,0.9915966386554622,0.7755341629490491,0.9063414634146342,0.13866039952996476,0.8363083934675275,0.7431009198773497,0.24329896907216494,3640,4426,119,0.09087527894867345,0.45255474452554745,1.0824214213417565
simple_pc1_gm_gate_t254,score_core,0.02,pc3__le,2.1506591515994145,1041,8477,0.7559278046478707,0.6178251264683113,0.8934065934065935,0.6726163578852237,0.43552311435523117,0.7951100244498778,0.8918514080287597,0.17063870352716873,0.8413971539456663,0.7668727460072128,0.2452054794520548,3640,4426,411,8066,0.7722539052814282,0.5444367184500639,0.8934065934065935,0.6726163578852237,0.0,0.8287461773700305,0.909841075794621,0.0,0.8598625066102591,0.7734476487399324,0.0,3640,4426,0,119,0.907563025210084,0.3171806167400881,0.0,0.0,0.907563025210084,0.0,0.0,1.0,0.0,0.0,0.9515418502202643,0,0,119,292,0.24315068493150685,0.13039485766758493,0.0,0.0,0.24315068493150685,0.0,0.0,1.0,0.0,0.0,0.39118457300275483,0,0,292,8185,0.7742211362248015,0.6097023860683013,0.8934065934065935,0.6726163578852237,0.907563025210084,0.8287461773700305,0.906792567773378,0.11042944785276074,0.8598625066102591,0.7723440134907251,0.19690063810391978,3640,4426,119,0.10786015373171337,0.43552311435523117,1.0809679511934402
simple_pc1_gm_gate_t254,score_all_max,0.02,pc1__ge,-6.099036591134506,1178,8477,0.7404742243718296,0.6065415782348103,0.8925824175824176,0.6418888386805242,0.45498783454987834,0.7912810521188505,0.8919937205651491,0.15767284991568298,0.838884585592564,0.7465510445407962,0.23418910457107076,3640,4426,411,8066,0.7550210761219935,0.5365222991281146,0.8925824175824176,0.6418888386805242,0.0,0.8250380904012189,0.9079578139980825,0.0,0.8574821852731591,0.7520847121111847,0.0,3640,4426,0,119,0.9411764705882353,0.32323232323232326,0.0,0.0,0.9411764705882353,0.0,0.0,1.0,0.0,0.0,0.9696969696969697,0,0,119,292,0.2568493150684932,0.13623978201634876,0.0,0.0,0.2568493150684932,0.0,0.0,1.0,0.0,0.0,0.4087193460490463,0,0,292,8185,0.7577275503970679,0.5969948426555048,0.8925824175824176,0.6418888386805242,0.9411764705882353,0.8250380904012189,0.9059311224489796,0.10081008100810081,0.8574821852731591,0.7513885215551441,0.1821138211382114,3640,4426,119,0.12385321100917432,0.45498783454987834,1.0794238343127962
simple_pc1_gm_gate_t254,score_dual,0.01,pc3__le,2.1506591515994145,1037,8477,0.7558098383862215,0.6151866532149616,0.8945054945054945,0.6730682331676457,0.41849148418491483,0.7935656836461126,0.8948633223190147,0.1645933014354067,0.8410176934004908,0.7682785299806576,0.23626373626373626,3640,4426,411,8066,0.7729977684106124,0.5450456034890272,0.8945054945054945,0.6730682331676457,0.0,0.8289205702647657,0.9124042879019908,0.0,0.8604651162790697,0.774671694188012,0.0,3640,4426,0,119,0.957983193277311,0.3261802575107296,0.0,0.0,0.957983193277311,0.0,0.0,1.0,0.0,0.0,0.9785407725321889,0,0,119,292,0.19863013698630136,0.11047619047619046,0.0,0.0,0.19863013698630136,0.0,0.0,1.0,0.0,0.0,0.3314285714285714,0,0,292,8185,0.7756872327428223,0.6135939325150394,0.8945054945054945,0.6730682331676457,0.957983193277311,0.8289205702647657,0.9110091743119266,0.11550151975683891,0.8604651162790697,0.7741683991683992,0.20614828209764918,3640,4426,119,0.10823208529630549,0.41849148418491483,1.0757738573904836
simple_pc1_gm_gate_t254,score_all_max,0.05,pc3__le,3.281193089810729,1154,8477,0.7486138964256223,0.6107736314869466,0.8964285714285715,0.6558969724356077,0.43795620437956206,0.8042888834113877,0.8910374462860651,0.1549053356282272,0.8478628036897492,0.7555960437272254,0.22886204704386523,3640,4426,411,8066,0.7644433424249938,0.5428646165129357,0.8964285714285715,0.6558969724356077,0.0,0.8386019018247237,0.9091763232070154,0.0,0.8665515867746647,0.7620422627641423,0.0,3640,4426,0,119,0.9159663865546218,0.31871345029239767,0.0,0.0,0.9159663865546218,0.0,0.0,1.0,0.0,0.0,0.956140350877193,0,0,119,292,0.24315068493150685,0.13039485766758493,0.0,0.0,0.24315068493150685,0.0,0.0,1.0,0.0,0.0,0.39118457300275483,0,0,292,8185,0.7666463042150274,0.6025867543688318,0.8964285714285715,0.6558969724356077,0.9159663865546218,0.8386019018247237,0.9063378083047143,0.0999083409715857,0.8665515867746647,0.7610433870756325,0.18016528925619835,3640,4426,119,0.121745598809819,0.43795620437956206,1.0757661286813882
simple_pc1_gm_gate_t254,score_all_max,0.05,none,,1162,8477,0.7476701663324289,0.6099553008771407,0.8964285714285715,0.6540894713059195,0.43795620437956206,0.8042888834113877,0.8907692307692308,0.15384615384615385,0.8478628036897492,0.7542991141219385,0.22770398481973433,3640,4426,411,8066,0.7634515249194148,0.5424308731634903,0.8964285714285715,0.6540894713059195,0.0,0.8386019018247237,0.9089481946624803,0.0,0.8665515867746647,0.7607410327158061,0.0,3640,4426,0,119,0.9159663865546218,0.31871345029239767,0.0,0.0,0.9159663865546218,0.0,0.0,1.0,0.0,0.0,0.956140350877193,0,0,119,292,0.24315068493150685,0.13039485766758493,0.0,0.0,0.24315068493150685,0.0,0.0,1.0,0.0,0.0,0.39118457300275483,0,0,292,8185,0.765668906536347,0.6017587800935722,0.8964285714285715,0.6540894713059195,0.9159663865546218,0.8386019018247237,0.9061032863849765,0.09918107370336669,0.8665515867746647,0.7597428159034247,0.17898193760262726,3640,4426,119,0.12273741631539797,0.43795620437956206,1.0748223985881948
simple_pc1_gm_gate_t254,score_all_max,0.05,qrs_visibility__le,0.2800807397384144,1162,8477,0.7476701663324289,0.6099553008771407,0.8964285714285715,0.6540894713059195,0.43795620437956206,0.8042888834113877,0.8907692307692308,0.15384615384615385,0.8478628036897492,0.7542991141219385,0.22770398481973433,3640,4426,411,8066,0.7634515249194148,0.5424308731634903,0.8964285714285715,0.6540894713059195,0.0,0.8386019018247237,0.9089481946624803,0.0,0.8665515867746647,0.7607410327158061,0.0,3640,4426,0,119,0.9159663865546218,0.31871345029239767,0.0,0.0,0.9159663865546218,0.0,0.0,1.0,0.0,0.0,0.956140350877193,0,0,119,292,0.24315068493150685,0.13039485766758493,0.0,0.0,0.24315068493150685,0.0,0.0,1.0,0.0,0.0,0.39118457300275483,0,0,292,8185,0.765668906536347,0.6017587800935722,0.8964285714285715,0.6540894713059195,0.9159663865546218,0.8386019018247237,0.9061032863849765,0.09918107370336669,0.8665515867746647,0.7597428159034247,0.17898193760262726,3640,4426,119,0.12273741631539797,0.43795620437956206,1.0748223985881948
simple_pc1_gm_gate_t254,score_all_max,0.05,qrs_visibility__le,0.3732307518330272,1162,8477,0.7476701663324289,0.6099553008771407,0.8964285714285715,0.6540894713059195,0.43795620437956206,0.8042888834113877,0.8907692307692308,0.15384615384615385,0.8478628036897492,0.7542991141219385,0.22770398481973433,3640,4426,411,8066,0.7634515249194148,0.5424308731634903,0.8964285714285715,0.6540894713059195,0.0,0.8386019018247237,0.9089481946624803,0.0,0.8665515867746647,0.7607410327158061,0.0,3640,4426,0,119,0.9159663865546218,0.31871345029239767,0.0,0.0,0.9159663865546218,0.0,0.0,1.0,0.0,0.0,0.956140350877193,0,0,119,292,0.24315068493150685,0.13039485766758493,0.0,0.0,0.24315068493150685,0.0,0.0,1.0,0.0,0.0,0.39118457300275483,0,0,292,8185,0.765668906536347,0.6017587800935722,0.8964285714285715,0.6540894713059195,0.9159663865546218,0.8386019018247237,0.9061032863849765,0.09918107370336669,0.8665515867746647,0.7597428159034247,0.17898193760262726,3640,4426,119,0.12273741631539797,0.43795620437956206,1.0748223985881948
simple_pc1_gm_gate_t254,score_all_max,0.08,pc3__le,2.1506591515994145,1003,8477,0.7606464551138374,0.6194735971298403,0.8994505494505495,0.6782647989154993,0.41849148418491483,0.7981472452462214,0.8923900118906064,0.17012858555885263,0.8457762851976234,0.7707317073170732,0.2419127988748242,3640,4426,411,8066,0.7780808331267047,0.5474480612093342,0.8994505494505495,0.6782647989154993,0.0,0.8320203303684879,0.9119076549210207,0.0,0.8644224422442244,0.7779217413837782,0.0,3640,4426,0,119,0.8907563025210085,0.31407407407407406,0.0,0.0,0.8907563025210085,0.0,0.0,1.0,0.0,0.0,0.9422222222222222,0,0,119,292,0.22602739726027396,0.12290502793296089,0.0,0.0,0.22602739726027396,0.0,0.0,1.0,0.0,0.0,0.3687150837988827,0,0,292,8185,0.7797189981673793,0.6134280653229514,0.8994505494505495,0.6782647989154993,0.8907563025210085,0.8320203303684879,0.908320726172466,0.11216931216931217,0.8644224422442244,0.7766136334238779,0.19924812030075187,3640,4426,119,0.10401686089759485,0.41849148418491483,1.07463602954575
simple_pc1_gm_gate_t254,score_all_max,0.02,pc3__ge,-2.4479177605053817,1026,8477,0.7423616845582164,0.60846034682796,0.8986263736263737,0.6418888386805242,0.44038929440389296,0.7682010333489901,0.8919937205651491,0.17504835589941972,0.8283109648012155,0.7465510445407962,0.2505190311418685,3640,4426,411,8066,0.7577485742623358,0.5330183979089759,0.8986263736263737,0.6418888386805242,0.0,0.8009304603330069,0.9079578139980825,0.0,0.8469704816157432,0.7520847121111847,0.0,3640,4426,0,119,0.9411764705882353,0.32323232323232326,0.0,0.0,0.9411764705882353,0.0,0.0,1.0,0.0,0.0,0.9696969696969697,0,0,119,292,0.2363013698630137,0.12742382271468145,0.0,0.0,0.2363013698630137,0.0,0.0,1.0,0.0,0.0,0.38227146814404434,0,0,292,8185,0.7604153940134393,0.6016670231971839,0.8986263736263737,0.6418888386805242,0.9411764705882353,0.8009304603330069,0.9059311224489796,0.11606217616580311,0.8469704816157432,0.7513885215551441,0.2066420664206642,3640,4426,119,0.10575254153235805,0.44038929440389296,1.0731196136672663
simple_pc1_gm_gate_t254,score_core,0.02,pc3__le,3.281193089810729,1140,8477,0.7450749085761472,0.6082932875728898,0.8934065934065935,0.6516041572525982,0.43795620437956206,0.7960832313341494,0.8890258939580764,0.156794425087108,0.8419417475728155,0.7520208604954368,0.23091725465041693,3640,4426,411,8066,0.7607240267790727,0.5396265543985531,0.8934065934065935,0.6516041572525982,0.0,0.8298035213064557,0.9072035231204781,0.0,0.8604312739780394,0.75844838921762,0.0,3640,4426,0,119,0.907563025210084,0.3171806167400881,0.0,0.0,0.907563025210084,0.0,0.0,1.0,0.0,0.0,0.9515418502202643,0,0,119,292,0.2465753424657534,0.13186813186813187,0.0,0.0,0.2465753424657534,0.0,0.0,1.0,0.0,0.0,0.3956043956043956,0,0,292,8185,0.7628588882101405,0.599512451076608,0.8934065934065935,0.6516041572525982,0.907563025210084,0.8298035213064557,0.9040752351097179,0.10037174721189591,0.8604312739780394,0.7573529411764706,0.18075313807531382,3640,4426,119,0.1200099181750558,0.43795620437956206,1.0714803352603697
simple_pc1_gm_gate_t254,score_all_max,0.01,qrs_visibility__ge,0.018109057926941858,752,8477,0.7457827061460423,0.6180506919019481,0.8906593406593407,0.6565747853592409,0.4233576642335766,0.7241456332365424,0.8969135802469136,0.22894736842105262,0.7988172970309227,0.7581528828593791,0.2971818958155423,3640,4426,411,8066,0.7622117530374412,0.526930216527376,0.8906593406593407,0.6565747853592409,0.0,0.7560634328358209,0.9104010025062657,0.0,0.8178607467204844,0.7629299028616435,0.0,3640,4426,0,119,0.9915966386554622,0.33192686357243323,0.0,0.0,0.9915966386554622,0.0,0.0,1.0,0.0,0.0,0.9957805907172996,0,0,119,292,0.1917808219178082,0.10727969348659004,0.0,0.0,0.1917808219178082,0.0,0.0,1.0,0.0,0.0,0.3218390804597701,0,0,292,8185,0.7655467318265119,0.6224820953246563,0.8906593406593407,0.6565747853592409,0.9915966386554622,0.7560634328358209,0.9101158784841842,0.16761363636363635,0.8178607467204844,0.762829767686048,0.2867557715674362,3640,4426,119,0.07265063228365981,0.4233576642335766,1.0714645077137845
simple_pc1_gm_gate_t254,score_all_max,0.02,pc1__ge,-5.359154835604749,1017,8477,0.7416538869883214,0.607783625335928,0.8972527472527473,0.6418888386805242,0.43795620437956206,0.7654089524255917,0.8919937205651491,0.17560975609756097,0.826103452636904,0.7465510445407962,0.25069637883008355,3640,4426,411,8066,0.7571286883213488,0.5322951799467012,0.8972527472527473,0.6418888386805242,0.0,0.7981427174975562,0.9079578139980825,0.0,0.8448008277289187,0.7520847121111847,0.0,3640,4426,0,119,0.9411764705882353,0.32323232323232326,0.0,0.0,0.9411764705882353,0.0,0.0,1.0,0.0,0.0,0.9696969696969697,0,0,119,292,0.2328767123287671,0.1259259259259259,0.0,0.0,0.2328767123287671,0.0,0.0,1.0,0.0,0.0,0.37777777777777777,0,0,292,8185,0.7598045204642639,0.6014559293152576,0.8972527472527473,0.6418888386805242,0.9411764705882353,0.7981427174975562,0.9059311224489796,0.11703239289446186,0.8448008277289187,0.7513885215551441,0.20817843866171004,3640,4426,119,0.10476072402677908,0.43795620437956206,1.0710465359587185
simple_pc1_gm_gate_t254,score_core,0.02,qrs_visibility__le,0.2800807397384144,1147,8477,0.744249144744603,0.6075648414457916,0.8936813186813187,0.64979665612291,0.43795620437956206,0.7961331375428292,0.8887515451174289,0.15584415584415584,0.842091638622832,0.7507178282432785,0.22988505747126436,3640,4426,411,8066,0.7598561864616911,0.5392409957611134,0.8936813186813187,0.64979665612291,0.0,0.8298469387755102,0.9069694102806686,0.0,0.8605820105820106,0.7571409767013295,0.0,3640,4426,0,119,0.907563025210084,0.3171806167400881,0.0,0.0,0.907563025210084,0.0,0.0,1.0,0.0,0.0,0.9515418502202643,0,0,119,292,0.2465753424657534,0.13186813186813187,0.0,0.0,0.2465753424657534,0.0,0.0,1.0,0.0,0.0,0.3956043956043956,0,0,292,8185,0.762003665241295,0.5987762589457801,0.8936813186813187,0.64979665612291,0.907563025210084,0.8298469387755102,0.9038340666247643,0.0997229916897507,0.8605820105820106,0.7560462670872765,0.17970049916805325,3640,4426,119,0.1208777584924374,0.43795620437956206,1.0706545714288254
simple_pc1_gm_gate_t254,score_core,0.02,qrs_visibility__le,0.3732307518330272,1147,8477,0.744249144744603,0.6075648414457916,0.8936813186813187,0.64979665612291,0.43795620437956206,0.7961331375428292,0.8887515451174289,0.15584415584415584,0.842091638622832,0.7507178282432785,0.22988505747126436,3640,4426,411,8066,0.7598561864616911,0.5392409957611134,0.8936813186813187,0.64979665612291,0.0,0.8298469387755102,0.9069694102806686,0.0,0.8605820105820106,0.7571409767013295,0.0,3640,4426,0,119,0.907563025210084,0.3171806167400881,0.0,0.0,0.907563025210084,0.0,0.0,1.0,0.0,0.0,0.9515418502202643,0,0,119,292,0.2465753424657534,0.13186813186813187,0.0,0.0,0.2465753424657534,0.0,0.0,1.0,0.0,0.0,0.3956043956043956,0,0,292,8185,0.762003665241295,0.5987762589457801,0.8936813186813187,0.64979665612291,0.907563025210084,0.8298469387755102,0.9038340666247643,0.0997229916897507,0.8605820105820106,0.7560462670872765,0.17970049916805325,3640,4426,119,0.1208777584924374,0.43795620437956206,1.0706545714288254
simple_pc1_gm_gate_t254,score_core,0.02,none,,1148,8477,0.7441311784829538,0.6074659764526312,0.8934065934065935,0.64979665612291,0.43795620437956206,0.7960832313341494,0.8887515451174289,0.15570934256055363,0.8419417475728155,0.7507178282432785,0.2297383535417996,3640,4426,411,8066,0.7597322092734937,0.5391907502264562,0.8934065934065935,0.64979665612291,0.0,0.8298035213064557,0.9069694102806686,0.0,0.8604312739780394,0.7571409767013295,0.0,3640,4426,0,119,0.907563025210084,0.3171806167400881,0.0,0.0,0.907563025210084,0.0,0.0,1.0,0.0,0.0,0.9515418502202643,0,0,119,292,0.2465753424657534,0.13186813186813187,0.0,0.0,0.2465753424657534,0.0,0.0,1.0,0.0,0.0,0.3956043956043956,0,0,292,8185,0.76188149053146,0.5986762210866098,0.8934065934065935,0.64979665612291,0.907563025210084,0.8298035213064557,0.9038340666247643,0.0996309963099631,0.8604312739780394,0.7560462670872765,0.17955112219451372,3640,4426,119,0.12100173568063477,0.43795620437956206,1.0705366051671763
simple_pc1_gm_gate_t254,score_all_max,0.1,pc3__le,2.1506591515994145,975,8477,0.7612362864220833,0.6193445642742109,0.9008241758241758,0.6789426118391324,0.41119221411192214,0.7949090909090909,0.8919560700504601,0.17192268565615462,0.8445589182227946,0.7710070558050032,0.242467718794835,3640,4426,411,8066,0.7790726506322837,0.5472106894820995,0.9008241758241758,0.6789426118391324,0.0,0.8286580742987112,0.9119878603945372,0.0,0.8632354876925102,0.7783965807537884,0.0,3640,4426,0,119,0.8823529411764706,0.3125,0.0,0.0,0.8823529411764706,0.0,0.0,1.0,0.0,0.0,0.9375,0,0,119,292,0.2191780821917808,0.1198501872659176,0.0,0.0,0.2191780821917808,0.0,0.0,1.0,0.0,0.0,0.3595505617977528,0,0,292,8185,0.7805742211362248,0.6141784481950076,0.9008241758241758,0.6789426118391324,0.8823529411764706,0.8286580742987112,0.908129344212753,0.11425462459194777,0.8632354876925102,0.7769877181641888,0.2023121387283237,3640,4426,119,0.10091743119266056,0.41119221411192214,1.0703832148664938
simple_pc1_gm_gate_t254,score_all_max,0.03,pc1__ge,-6.099036591134506,1106,8477,0.7441311784829538,0.6072872211034684,0.8958791208791209,0.6482150926344329,0.43309002433090027,0.7867310012062726,0.8915475450590429,0.15978456014362658,0.8377649325626204,0.750654107796965,0.23344262295081966,3640,4426,411,8066,0.7599801636498884,0.5377992905568453,0.8958791208791209,0.6482150926344329,0.0,0.8209969788519638,0.9084863837872071,0.0,0.8568050446663164,0.7565928270042194,0.0,3640,4426,0,119,0.9243697478991597,0.32023289665211063,0.0,0.0,0.9243697478991597,0.0,0.0,1.0,0.0,0.0,0.9606986899563319,0,0,119,292,0.2328767123287671,0.1259259259259259,0.0,0.0,0.2328767123287671,0.0,0.0,1.0,0.0,0.0,0.37777777777777777,0,0,292,8185,0.7623701893708003,0.6004474274018409,0.8958791208791209,0.6482150926344329,0.9243697478991597,0.8209969788519638,0.905904641616672,0.10516252390057361,0.8568050446663164,0.755696035822468,0.1888412017167382,3640,4426,119,0.1160426481527399,0.43309002433090027,1.069299656032958
simple_pc1_gm_gate_t254,score_core,0.01,pc3__ge,-1.610530736647411,789,8477,0.7454288073610947,0.6151351409890929,0.9096153846153846,0.640533212833258,0.4209245742092457,0.7361049355269008,0.8909490886235072,0.21706398996235884,0.8137134431064144,0.7452681388012619,0.28642384105960267,3640,4426,411,8066,0.7619637986610464,0.5277145047805805,0.9096153846153846,0.640533212833258,0.0,0.7678571428571429,0.9057507987220448,0.0,0.8327464788732394,0.7503970354685019,0.0,3640,4426,0,119,0.9747899159663865,0.32907801418439714,0.0,0.0,0.9747899159663865,0.0,0.0,1.0,0.0,0.0,0.9872340425531915,0,0,119,292,0.1952054794520548,0.10888252148997135,0.0,0.0,0.1952054794520548,0.0,0.0,1.0,0.0,0.0,0.32664756446991405,0,0,292,8185,0.7650580329871717,0.6176423961504959,0.9096153846153846,0.640533212833258,0.9747899159663865,0.7678571428571429,0.9048834982444941,0.15675675675675677,0.8327464788732394,0.7500992194734754,0.270081490104773,3640,4426,119,0.07736176543515993,0.4209245742092457,1.068251717647097
simple_pc1_gm_gate_t254,score_all_max,0.08,pc3__le,3.281193089810729,1087,8477,0.7512091541819039,0.6108699334231116,0.8994505494505495,0.6601897876186172,0.41849148418491483,0.7989263055148853,0.889768574908648,0.15707762557077626,0.8462134918583614,0.757976653696498,0.22841965471447542,3640,4426,411,8066,0.768162658070915,0.5433336345751448,0.8994505494505495,0.6601897876186172,0.0,0.8328669549732892,0.9097135740971357,0.0,0.8648791441024963,0.7651217596229379,0.0,3640,4426,0,119,0.8907563025210085,0.31407407407407406,0.0,0.0,0.8907563025210085,0.0,0.0,1.0,0.0,0.0,0.9422222222222222,0,0,119,292,0.22602739726027396,0.12290502793296089,0.0,0.0,0.22602739726027396,0.0,0.0,1.0,0.0,0.0,0.3687150837988827,0,0,292,8185,0.7699450213805742,0.6044566187667229,0.8994505494505495,0.6601897876186172,0.8907563025210085,0.8328669549732892,0.906046511627907,0.10301263362487852,0.8648791441024963,0.7638217226506339,0.18466898954703834,3640,4426,119,0.11443094470617407,0.41849148418491483,1.0651987286138165
simple_pc1_gm_gate_t254,score_all_max,0.08,none,,1094,8477,0.7503833903503598,0.6101414428062691,0.8994505494505495,0.6586082241301401,0.41849148418491483,0.7989263055148853,0.889533109551419,0.1560798548094374,0.8462134918583614,0.7568479813059846,0.22736285525446134,3640,4426,411,8066,0.7672948177535334,0.5429560454569584,0.8994505494505495,0.6586082241301401,0.0,0.8328669549732892,0.9095163806552262,0.0,0.8648791441024963,0.763988992268379,0.0,3640,4426,0,119,0.8907563025210085,0.31407407407407406,0.0,0.0,0.8907563025210085,0.0,0.0,1.0,0.0,0.0,0.9422222222222222,0,0,119,292,0.22602739726027396,0.12290502793296089,0.0,0.0,0.22602739726027396,0.0,0.0,1.0,0.0,0.0,0.3687150837988827,0,0,292,8185,0.7690897984117288,0.6037062063044666,0.8994505494505495,0.6586082241301401,0.8907563025210085,0.8328669549732892,0.9058421379738968,0.10231660231660232,0.8648791441024963,0.7626896912611199,0.18354978354978355,3640,4426,119,0.11529878502355567,0.41849148418491483,1.0643729647822724
simple_pc1_gm_gate_t254,score_all_max,0.08,qrs_visibility__le,0.2800807397384144,1094,8477,0.7503833903503598,0.6101414428062691,0.8994505494505495,0.6586082241301401,0.41849148418491483,0.7989263055148853,0.889533109551419,0.1560798548094374,0.8462134918583614,0.7568479813059846,0.22736285525446134,3640,4426,411,8066,0.7672948177535334,0.5429560454569584,0.8994505494505495,0.6586082241301401,0.0,0.8328669549732892,0.9095163806552262,0.0,0.8648791441024963,0.763988992268379,0.0,3640,4426,0,119,0.8907563025210085,0.31407407407407406,0.0,0.0,0.8907563025210085,0.0,0.0,1.0,0.0,0.0,0.9422222222222222,0,0,119,292,0.22602739726027396,0.12290502793296089,0.0,0.0,0.22602739726027396,0.0,0.0,1.0,0.0,0.0,0.3687150837988827,0,0,292,8185,0.7690897984117288,0.6037062063044666,0.8994505494505495,0.6586082241301401,0.8907563025210085,0.8328669549732892,0.9058421379738968,0.10231660231660232,0.8648791441024963,0.7626896912611199,0.18354978354978355,3640,4426,119,0.11529878502355567,0.41849148418491483,1.0643729647822724
simple_pc1_gm_gate_t254,score_all_max,0.08,qrs_visibility__le,0.3732307518330272,1094,8477,0.7503833903503598,0.6101414428062691,0.8994505494505495,0.6586082241301401,0.41849148418491483,0.7989263055148853,0.889533109551419,0.1560798548094374,0.8462134918583614,0.7568479813059846,0.22736285525446134,3640,4426,411,8066,0.7672948177535334,0.5429560454569584,0.8994505494505495,0.6586082241301401,0.0,0.8328669549732892,0.9095163806552262,0.0,0.8648791441024963,0.763988992268379,0.0,3640,4426,0,119,0.8907563025210085,0.31407407407407406,0.0,0.0,0.8907563025210085,0.0,0.0,1.0,0.0,0.0,0.9422222222222222,0,0,119,292,0.22602739726027396,0.12290502793296089,0.0,0.0,0.22602739726027396,0.0,0.0,1.0,0.0,0.0,0.3687150837988827,0,0,292,8185,0.7690897984117288,0.6037062063044666,0.8994505494505495,0.6586082241301401,0.8907563025210085,0.8328669549732892,0.9058421379738968,0.10231660231660232,0.8648791441024963,0.7626896912611199,0.18354978354978355,3640,4426,119,0.11529878502355567,0.41849148418491483,1.0643729647822724
simple_pc1_gm_gate_t254,score_dual,0.01,pc3__le,3.281193089810729,1141,8477,0.7441311784829538,0.6048083481992271,0.8945054945054945,0.6507004066877542,0.41849148418491483,0.7945339189848707,0.891640866873065,0.1496953872932985,0.8415611269061773,0.7523510971786834,0.2205128205128205,3640,4426,411,8066,0.7607240267790727,0.5399091142191564,0.8945054945054945,0.6507004066877542,0.0,0.8299770583736936,0.9096651926721415,0.0,0.8610339812243819,0.7586933614330874,0.0,3640,4426,0,119,0.957983193277311,0.3261802575107296,0.0,0.0,0.957983193277311,0.0,0.0,1.0,0.0,0.0,0.9785407725321889,0,0,119,292,0.19863013698630136,0.11047619047619046,0.0,0.0,0.19863013698630136,0.0,0.0,1.0,0.0,0.0,0.3314285714285714,0,0,292,8185,0.7635919364691509,0.6025525857491076,0.8945054945054945,0.6507004066877542,0.957983193277311,0.8299770583736936,0.9082308420056765,0.10449129239230064,0.8610339812243819,0.7581940239568251,0.1884297520661157,3640,4426,119,0.12112571286883214,0.41849148418491483,1.064095197487216
simple_pc1_gm_gate_t254,score_all_max,0.03,pc3__ge,-2.4479177605053817,961,8477,0.7456647398843931,0.6094549580345324,0.9008241758241758,0.6482150926344329,0.4209245742092457,0.7643356643356644,0.8915475450590429,0.1785345717234262,0.8269861286254729,0.750654107796965,0.25072463768115943,3640,4426,411,8066,0.7622117530374412,0.534189353067454,0.9008241758241758,0.6482150926344329,0.0,0.7974221789883269,0.9084863837872071,0.0,0.8459752321981424,0.7565928270042194,0.0,3640,4426,0,119,0.9243697478991597,0.32023289665211063,0.0,0.0,0.9243697478991597,0.0,0.0,1.0,0.0,0.0,0.9606986899563319,0,0,119,292,0.21575342465753425,0.11830985915492959,0.0,0.0,0.21575342465753425,0.0,0.0,1.0,0.0,0.0,0.35492957746478876,0,0,292,8185,0.7645693341478313,0.6054351381206913,0.9008241758241758,0.6482150926344329,0.9243697478991597,0.7974221789883269,0.905904641616672,0.12141280353200883,0.8459752321981424,0.755696035822468,0.2146341463414634,3640,4426,119,0.09868584180510787,0.4209245742092457,1.0640068167411332
simple_pc1_gm_gate_t254,score_all_max,0.01,pc2__le,14.810379664891448,712,8477,0.7395304942786363,0.6150058706620151,0.8975274725274726,0.6391775869859919,0.4209245742092457,0.7109902067464635,0.8946869070208728,0.24027777777777778,0.7934426229508197,0.7456510279388509,0.3059239610963749,3640,4426,411,8066,0.7557649392511778,0.5208602718201991,0.8975274725274726,0.6391775869859919,0.0,0.7418256130790191,0.9081861958266453,0.0,0.8122824465440079,0.7502983689165893,0.0,3640,4426,0,119,0.9915966386554622,0.33192686357243323,0.0,0.0,0.9915966386554622,0.0,0.0,1.0,0.0,0.0,0.9957805907172996,0,0,119,292,0.18835616438356165,0.10566762728146013,0.0,0.0,0.18835616438356165,0.0,0.0,1.0,0.0,0.0,0.3170028818443804,0,0,292,8185,0.7591936469150886,0.6211672469814485,0.8975274725274726,0.6391775869859919,0.9915966386554622,0.7418256130790191,0.9078947368421053,0.1774436090225564,0.8122824465440079,0.7501988862370724,0.3010204081632653,3640,4426,119,0.06781552194396231,0.4209245742092457,1.0638470157077258
simple_pc1_gm_gate_t254,score_dual,0.01,none,,1150,8477,0.7430694821281114,0.6038972515402721,0.8945054945054945,0.648666967916855,0.41849148418491483,0.7945339189848707,0.891338093759702,0.14853195164075994,0.8415611269061773,0.7508826990976853,0.21924792861695347,3640,4426,411,8066,0.7596082320852963,0.5394180262703631,0.8945054945054945,0.648666967916855,0.0,0.8299770583736936,0.9094076655052264,0.0,0.8610339812243819,0.757220097586707,0.0,3640,4426,0,119,0.957983193277311,0.3261802575107296,0.0,0.0,0.957983193277311,0.0,0.0,1.0,0.0,0.0,0.9785407725321889,0,0,119,292,0.19863013698630136,0.11047619047619046,0.0,0.0,0.19863013698630136,0.0,0.0,1.0,0.0,0.0,0.3314285714285714,0,0,292,8185,0.7624923640806353,0.6015978920193136,0.8945054945054945,0.648666967916855,0.957983193277311,0.8299770583736936,0.9079696394686907,0.10363636363636364,0.8610339812243819,0.7567211386399578,0.18703855619360132,3640,4426,119,0.12224150756260849,0.41849148418491483,1.0630335011323735
simple_pc1_gm_gate_t254,score_dual,0.01,qrs_visibility__le,0.2800807397384144,1150,8477,0.7430694821281114,0.6038972515402721,0.8945054945054945,0.648666967916855,0.41849148418491483,0.7945339189848707,0.891338093759702,0.14853195164075994,0.8415611269061773,0.7508826990976853,0.21924792861695347,3640,4426,411,8066,0.7596082320852963,0.5394180262703631,0.8945054945054945,0.648666967916855,0.0,0.8299770583736936,0.9094076655052264,0.0,0.8610339812243819,0.757220097586707,0.0,3640,4426,0,119,0.957983193277311,0.3261802575107296,0.0,0.0,0.957983193277311,0.0,0.0,1.0,0.0,0.0,0.9785407725321889,0,0,119,292,0.19863013698630136,0.11047619047619046,0.0,0.0,0.19863013698630136,0.0,0.0,1.0,0.0,0.0,0.3314285714285714,0,0,292,8185,0.7624923640806353,0.6015978920193136,0.8945054945054945,0.648666967916855,0.957983193277311,0.8299770583736936,0.9079696394686907,0.10363636363636364,0.8610339812243819,0.7567211386399578,0.18703855619360132,3640,4426,119,0.12224150756260849,0.41849148418491483,1.0630335011323735
simple_pc1_gm_gate_t254,score_dual,0.01,qrs_visibility__le,0.3732307518330272,1150,8477,0.7430694821281114,0.6038972515402721,0.8945054945054945,0.648666967916855,0.41849148418491483,0.7945339189848707,0.891338093759702,0.14853195164075994,0.8415611269061773,0.7508826990976853,0.21924792861695347,3640,4426,411,8066,0.7596082320852963,0.5394180262703631,0.8945054945054945,0.648666967916855,0.0,0.8299770583736936,0.9094076655052264,0.0,0.8610339812243819,0.757220097586707,0.0,3640,4426,0,119,0.957983193277311,0.3261802575107296,0.0,0.0,0.957983193277311,0.0,0.0,1.0,0.0,0.0,0.9785407725321889,0,0,119,292,0.19863013698630136,0.11047619047619046,0.0,0.0,0.19863013698630136,0.0,0.0,1.0,0.0,0.0,0.3314285714285714,0,0,292,8185,0.7624923640806353,0.6015978920193136,0.8945054945054945,0.648666967916855,0.957983193277311,0.8299770583736936,0.9079696394686907,0.10363636363636364,0.8610339812243819,0.7567211386399578,0.18703855619360132,3640,4426,119,0.12224150756260849,0.41849148418491483,1.0630335011323735
simple_pc1_gm_gate_t254,score_all_max,0.03,pc1__ge,-5.359154835604749,954,8477,0.7450749085761472,0.6088163971529355,0.8997252747252747,0.6482150926344329,0.41849148418491483,0.7621596462648359,0.8915475450590429,0.1787941787941788,0.8252488345722565,0.750654107796965,0.25054624908958484,3640,4426,411,8066,0.7617158442846517,0.533627530802558,0.8997252747252747,0.6482150926344329,0.0,0.7952889752306945,0.9084863837872071,0.0,0.8442897654034545,0.7565928270042194,0.0,3640,4426,0,119,0.9243697478991597,0.32023289665211063,0.0,0.0,0.9243697478991597,0.0,0.0,1.0,0.0,0.0,0.9606986899563319,0,0,119,292,0.21232876712328766,0.1167608286252354,0.0,0.0,0.21232876712328766,0.0,0.0,1.0,0.0,0.0,0.3502824858757062,0,0,292,8185,0.7640806353084911,0.6052945801273193,0.8997252747252747,0.6482150926344329,0.9243697478991597,0.7952889752306945,0.905904641616672,0.12222222222222222,0.8442897654034545,0.755696035822468,0.21589793915603533,3640,4426,119,0.09794197867592364,0.41849148418491483,1.0620517052942344
simple_pc1_gm_gate_t254,score_all_max,0.1,pc3__le,3.281193089810729,1055,8477,0.7522708505367465,0.6110696004413129,0.9008241758241758,0.6617713511070944,0.41119221411192214,0.7956806600339723,0.8894624962040693,0.1589840075258702,0.8449942017781213,0.7589065941184091,0.22930800542740842,3640,4426,411,8066,0.7696503843292835,0.5433142311982819,0.9008241758241758,0.6617713511070944,0.0,0.829496584872249,0.9099099099099099,0.0,0.863690241011458,0.7662524525833878,0.0,3640,4426,0,119,0.8823529411764706,0.3125,0.0,0.0,0.8823529411764706,0.0,0.0,1.0,0.0,0.0,0.9375,0,0,119,292,0.2191780821917808,0.1198501872659176,0.0,0.0,0.2191780821917808,0.0,0.0,1.0,0.0,0.0,0.3595505617977528,0,0,292,8185,0.77128894318876,0.6054591565783624,0.9008241758241758,0.6617713511070944,0.8823529411764706,0.829496584872249,0.9059696875966594,0.10510510510510511,0.863690241011458,0.7648518083300692,0.18783542039355994,3640,4426,119,0.11083560624845029,0.41119221411192214,1.061417778981157
simple_pc1_gm_gate_t254,score_all_max,0.1,none,,1061,8477,0.7515630529668514,0.6104379061647903,0.9008241758241758,0.6604157252598283,0.41119221411192214,0.7956806600339723,0.8892607240644965,0.1580916744621141,0.8449942017781213,0.7579411383378711,0.22837837837837838,3640,4426,411,8066,0.7689065212000992,0.5429912183569633,0.9008241758241758,0.6604157252598283,0.0,0.829496584872249,0.9097416744475568,0.0,0.863690241011458,0.7652834140594319,0.0,3640,4426,0,119,0.8823529411764706,0.3125,0.0,0.0,0.8823529411764706,0.0,0.0,1.0,0.0,0.0,0.9375,0,0,119,292,0.2191780821917808,0.1198501872659176,0.0,0.0,0.2191780821917808,0.0,0.0,1.0,0.0,0.0,0.3595505617977528,0,0,292,8185,0.7705558949297495,0.6048021418752899,0.9008241758241758,0.6604157252598283,0.8823529411764706,0.829496584872249,0.9057948559033158,0.1044776119402985,0.863690241011458,0.7638834444008885,0.18683274021352314,3640,4426,119,0.11157946937763452,0.41119221411192214,1.060709981411262
simple_pc1_gm_gate_t254,score_all_max,0.1,qrs_visibility__le,0.2800807397384144,1061,8477,0.7515630529668514,0.6104379061647903,0.9008241758241758,0.6604157252598283,0.41119221411192214,0.7956806600339723,0.8892607240644965,0.1580916744621141,0.8449942017781213,0.7579411383378711,0.22837837837837838,3640,4426,411,8066,0.7689065212000992,0.5429912183569633,0.9008241758241758,0.6604157252598283,0.0,0.829496584872249,0.9097416744475568,0.0,0.863690241011458,0.7652834140594319,0.0,3640,4426,0,119,0.8823529411764706,0.3125,0.0,0.0,0.8823529411764706,0.0,0.0,1.0,0.0,0.0,0.9375,0,0,119,292,0.2191780821917808,0.1198501872659176,0.0,0.0,0.2191780821917808,0.0,0.0,1.0,0.0,0.0,0.3595505617977528,0,0,292,8185,0.7705558949297495,0.6048021418752899,0.9008241758241758,0.6604157252598283,0.8823529411764706,0.829496584872249,0.9057948559033158,0.1044776119402985,0.863690241011458,0.7638834444008885,0.18683274021352314,3640,4426,119,0.11157946937763452,0.41119221411192214,1.060709981411262
simple_pc1_gm_gate_t254,score_all_max,0.1,qrs_visibility__le,0.3732307518330272,1061,8477,0.7515630529668514,0.6104379061647903,0.9008241758241758,0.6604157252598283,0.41119221411192214,0.7956806600339723,0.8892607240644965,0.1580916744621141,0.8449942017781213,0.7579411383378711,0.22837837837837838,3640,4426,411,8066,0.7689065212000992,0.5429912183569633,0.9008241758241758,0.6604157252598283,0.0,0.829496584872249,0.9097416744475568,0.0,0.863690241011458,0.7652834140594319,0.0,3640,4426,0,119,0.8823529411764706,0.3125,0.0,0.0,0.8823529411764706,0.0,0.0,1.0,0.0,0.0,0.9375,0,0,119,292,0.2191780821917808,0.1198501872659176,0.0,0.0,0.2191780821917808,0.0,0.0,1.0,0.0,0.0,0.3595505617977528,0,0,292,8185,0.7705558949297495,0.6048021418752899,0.9008241758241758,0.6604157252598283,0.8823529411764706,0.829496584872249,0.9057948559033158,0.1044776119402985,0.863690241011458,0.7638834444008885,0.18683274021352314,3640,4426,119,0.11157946937763452,0.41119221411192214,1.060709981411262
simple_pc1_gm_gate_t254,score_all_max,0.05,pc1__ge,-6.099036591134506,1040,8477,0.7473162675474814,0.6075481735971892,0.8986263736263737,0.6540894713059195,0.41119221411192214,0.7827231395070591,0.8907692307692308,0.16125954198473283,0.8366798823378949,0.7542991141219385,0.23166552433173407,3640,4426,411,8066,0.7644433424249938,0.5389332187042742,0.8986263736263737,0.6540894713059195,0.0,0.8173413293353323,0.9089481946624803,0.0,0.8560586233970164,0.7607410327158061,0.0,3640,4426,0,119,0.9159663865546218,0.31871345029239767,0.0,0.0,0.9159663865546218,0.0,0.0,1.0,0.0,0.0,0.956140350877193,0,0,119,292,0.2054794520547945,0.11363636363636363,0.0,0.0,0.2054794520547945,0.0,0.0,1.0,0.0,0.0,0.3409090909090909,0,0,292,8185,0.7666463042150274,0.6042433584178225,0.8986263736263737,0.6540894713059195,0.9159663865546218,0.8173413293353323,0.9061032863849765,0.11032388663967611,0.8560586233970164,0.7597428159034247,0.1969286359530262,3640,4426,119,0.10897594842548972,0.41119221411192214,1.0594504182780666
simple_pc1_gm_gate_t254,score_core,0.03,pc3__le,2.1506591515994145,975,8477,0.7569895010027132,0.6146574609143227,0.8961538461538462,0.675553547220967,0.40145985401459855,0.788875453446191,0.8901458767490324,0.167853509664293,0.8390996784565916,0.7681438664097624,0.23672883787661406,3640,4426,411,8066,0.7751053806099678,0.5445326110871639,0.8961538461538462,0.675553547220967,0.0,0.8231138026747413,0.9101978691019786,0.0,0.8580823359200316,0.7755154973414603,0.0,3640,4426,0,119,0.8571428571428571,0.3076923076923077,0.0,0.0,0.8571428571428571,0.0,0.0,1.0,0.0,0.0,0.9230769230769231,0,0,119,292,0.21575342465753425,0.11830985915492959,0.0,0.0,0.21575342465753425,0.0,0.0,1.0,0.0,0.0,0.35492957746478876,0,0,292,8185,0.7762981062919976,0.6094114989602207,0.8961538461538462,0.675553547220967,0.8571428571428571,0.8231138026747413,0.905511811023622,0.1108695652173913,0.8580823359200316,0.7738095238095238,0.19634263715110684,3640,4426,119,0.10141333994545004,0.40145985401459855,1.0584348921778814
simple_pc1_gm_gate_t254,score_all_max,0.02,pc3__ge,-1.610530736647411,796,8477,0.7451928748377964,0.6118902016090807,0.9090659340659341,0.6418888386805242,0.40632603406326034,0.7372994652406417,0.8919937205651491,0.20771144278606965,0.8142224409448819,0.7465510445407962,0.2748971193415638,3640,4426,411,8066,0.7624597074138358,0.5285286571856762,0.9090659340659341,0.6418888386805242,0.0,0.7695348837209303,0.9079578139980825,0.0,0.8335012594458439,0.7520847121111847,0.0,3640,4426,0,119,0.9411764705882353,0.32323232323232326,0.0,0.0,0.9411764705882353,0.0,0.0,1.0,0.0,0.0,0.9696969696969697,0,0,119,292,0.18835616438356165,0.10566762728146013,0.0,0.0,0.18835616438356165,0.0,0.0,1.0,0.0,0.0,0.3170028818443804,0,0,292,8185,0.7650580329871717,0.61431809904334,0.9090659340659341,0.6418888386805242,0.9411764705882353,0.7695348837209303,0.9059311224489796,0.14953271028037382,0.8335012594458439,0.7513885215551441,0.25806451612903225,3640,4426,119,0.07897346888172577,0.40632603406326034,1.056836882005707
simple_pc1_gm_gate_t254,score_core,0.02,pc1__ge,-6.099036591134506,1040,8477,0.7438952459596555,0.6053766667582688,0.8956043956043956,0.64979665612291,0.41362530413625304,0.7774862866682566,0.8887515451174289,0.16221374045801526,0.8323758457806715,0.7507178282432785,0.23303632625085674,3640,4426,411,8066,0.7607240267790727,0.5362164667886501,0.8956043956043956,0.64979665612291,0.0,0.8115509086382873,0.9069694102806686,0.0,0.8515084236646207,0.7571409767013295,0.0,3640,4426,0,119,0.907563025210084,0.3171806167400881,0.0,0.0,0.907563025210084,0.0,0.0,1.0,0.0,0.0,0.9515418502202643,0,0,119,292,0.21232876712328766,0.1167608286252354,0.0,0.0,0.21232876712328766,0.0,0.0,1.0,0.0,0.0,0.3502824858757062,0,0,292,8185,0.7628588882101405,0.6010099346246897,0.8956043956043956,0.64979665612291,0.907563025210084,0.8115509086382873,0.9038340666247643,0.10953346855983773,0.8515084236646207,0.7560462670872765,0.19547511312217195,3640,4426,119,0.10885197123729234,0.41362530413625304,1.0566478712573497
simple_pc1_gm_gate_t254,score_dual,0.02,pc3__le,2.1506591515994145,942,8477,0.7580511973575558,0.6141119070018297,0.9,0.675553547220967,0.38929440389294406,0.7844827586206896,0.8922709638913757,0.16842105263157894,0.8382804503582395,0.768934036260769,0.23512123438648053,3640,4426,411,8066,0.776841061244731,0.5446787758752284,0.9,0.675553547220967,0.0,0.8194097048524263,0.9121415497254424,0.0,0.8578161822466615,0.7762201453790238,0.0,3640,4426,0,119,0.8991596638655462,0.31563421828908556,0.0,0.0,0.8991596638655462,0.0,0.0,1.0,0.0,0.0,0.9469026548672567,0,0,119,292,0.1815068493150685,0.10241545893719807,0.0,0.0,0.1815068493150685,0.0,0.0,1.0,0.0,0.0,0.3072463768115942,0,0,292,8185,0.7786194257788638,0.6144863545298161,0.9,0.675553547220967,0.8991596638655462,0.8194097048524263,0.9088145896656535,0.11928651059085842,0.8578161822466615,0.7750129600829445,0.2106299212598425,3640,4426,119,0.09794197867592364,0.38929440389294406,1.0564042156971782
simple_pc1_gm_gate_t254,score_all_max,0.05,pc3__ge,-2.4479177605053817,897,8477,0.7488498289489206,0.6103273758107075,0.9032967032967033,0.6540894713059195,0.40145985401459855,0.7607589079130033,0.8907692307692308,0.18232044198895028,0.825923134890731,0.7542991141219385,0.2507598784194529,3640,4426,411,8066,0.7665509546243491,0.5352922064671074,0.9032967032967033,0.6540894713059195,0.0,0.794011108427916,0.9089481946624803,0.0,0.845135586685516,0.7607410327158061,0.0,3640,4426,0,119,0.9159663865546218,0.31871345029239767,0.0,0.0,0.9159663865546218,0.0,0.0,1.0,0.0,0.0,0.956140350877193,0,0,119,292,0.1917808219178082,0.10727969348659004,0.0,0.0,0.1917808219178082,0.0,0.0,1.0,0.0,0.0,0.3218390804597701,0,0,292,8185,0.7687232742822235,0.6100283380530629,0.9032967032967033,0.6540894713059195,0.9159663865546218,0.794011108427916,0.9061032863849765,0.12838633686690223,0.845135586685516,0.7597428159034247,0.22520661157024793,3640,4426,119,0.09174311926605505,0.40145985401459855,1.0555228591248946
simple_pc1_gm_gate_t254,score_core,0.01,qrs_visibility__ge,0.018109057926941858,652,8477,0.7496755927804648,0.6193251765811884,0.8936813186813187,0.6647085404428378,0.38929440389294406,0.7188950276243093,0.893681652490887,0.24242424242424243,0.7968156766687079,0.7623736719357347,0.2987861811391223,3640,4426,411,8066,0.7680386808827175,0.5280863646774799,0.8936813186813187,0.6647085404428378,0.0,0.7514437514437514,0.908866234167439,0.0,0.8164136027105032,0.7678454913219366,0.0,3640,4426,0,119,0.9747899159663865,0.32907801418439714,0.0,0.0,0.9747899159663865,0.0,0.0,1.0,0.0,0.0,0.9872340425531915,0,0,119,292,0.1506849315068493,0.08730158730158731,0.0,0.0,0.1506849315068493,0.0,0.0,1.0,0.0,0.0,0.2619047619047619,0,0,292,8185,0.7710445937690898,0.6332016217090962,0.8936813186813187,0.6647085404428378,0.9747899159663865,0.7514437514437514,0.9080246913580247,0.18831168831168832,0.8164136027105032,0.7675450039133838,0.31564625850340133,3640,4426,119,0.061988594098685845,0.38929440389294406,1.0547498612639805
simple_pc1_gm_gate_t254,score_all_max,0.15,pc3__le,2.1506591515994145,922,8477,0.76170815146868,0.6164776486010541,0.903021978021978,0.6805241753276096,0.3844282238442822,0.7890062409985598,0.8908606921029282,0.16989247311827957,0.8421726876761465,0.7716152171128474,0.23564504101416853,3640,4426,411,8066,0.7809323084552442,0.5469587570695036,0.903021978021978,0.6805241753276096,0.0,0.8233967935871743,0.9121744397334949,0.0,0.8613731656184487,0.7795031055900621,0.0,3640,4426,0,119,0.865546218487395,0.3093093093093093,0.0,0.0,0.865546218487395,0.0,0.0,1.0,0.0,0.0,0.9279279279279279,0,0,119,292,0.18835616438356165,0.10566762728146013,0.0,0.0,0.18835616438356165,0.0,0.0,1.0,0.0,0.0,0.3170028818443804,0,0,292,8185,0.7821624923640806,0.6155030627888357,0.903021978021978,0.6805241753276096,0.865546218487395,0.8233967935871743,0.9077757685352622,0.11771428571428572,0.8613731656184487,0.7778925619834711,0.20724346076458752,3640,4426,119,0.09571038928837095,0.3844282238442822,1.0543433872448222
simple_pc1_gm_gate_t254,score_all_max,0.2,pc3__le,2.1506591515994145,897,8477,0.7627698478235224,0.6174277228414815,0.904945054945055,0.6812019882512427,0.3819951338199513,0.7865329512893983,0.8909574468085106,0.1734806629834254,0.8415942769545223,0.7720870678617158,0.23860182370820668,3640,4426,411,8066,0.782172080337218,0.5469385346080052,0.904945054945055,0.6812019882512427,0.0,0.8208322950411163,0.9122541603630863,0.0,0.8608388867110937,0.779976717112922,0.0,3640,4426,0,119,0.865546218487395,0.3093093093093093,0.0,0.0,0.865546218487395,0.0,0.0,1.0,0.0,0.0,0.9279279279279279,0,0,119,292,0.18493150684931506,0.10404624277456648,0.0,0.0,0.18493150684931506,0.0,0.0,1.0,0.0,0.0,0.31213872832369943,0,0,292,8185,0.7833842394624313,0.6171919465861441,0.904945054945055,0.6812019882512427,0.865546218487395,0.8208322950411163,0.907859078590786,0.12103407755581669,0.8608388867110937,0.77836581902672,0.21237113402061855,3640,4426,119,0.09273493677163402,0.3819951338199513,1.054039803461012
simple_pc1_gm_gate_t254,score_all_max,0.05,pc1__ge,-5.359154835604749,891,8477,0.7482599976406747,0.6096593274220906,0.9021978021978022,0.6540894713059195,0.39902676399026765,0.7587800369685767,0.8907692307692308,0.18242491657397109,0.8242971887550201,0.7542991141219385,0.250381679389313,3640,4426,411,8066,0.7660550458715596,0.5347688021545195,0.9021978021978022,0.6540894713059195,0.0,0.7920887602508442,0.9089481946624803,0.0,0.8435653737477524,0.7607410327158061,0.0,3640,4426,0,119,0.9159663865546218,0.31871345029239767,0.0,0.0,0.9159663865546218,0.0,0.0,1.0,0.0,0.0,0.956140350877193,0,0,119,292,0.18835616438356165,0.10566762728146013,0.0,0.0,0.18835616438356165,0.0,0.0,1.0,0.0,0.0,0.3170028818443804,0,0,292,8185,0.7682345754428833,0.6098946994233588,0.9021978021978022,0.6540894713059195,0.9159663865546218,0.7920887602508442,0.9061032863849765,0.12914691943127962,0.8435653737477524,0.7597428159034247,0.22637590861889928,3640,4426,119,0.09112323332506819,0.39902676399026765,1.053567747677996
simple_pc1_gm_gate_t254,score_core,0.02,pc1__ge,-5.359154835604749,901,8477,0.7451928748377964,0.6075314654104121,0.9,0.64979665612291,0.40145985401459855,0.7562326869806094,0.8887515451174289,0.18151815181518152,0.8218765679879578,0.7507178282432785,0.25,3640,4426,411,8066,0.7627076617902306,0.5327037757018808,0.9,0.64979665612291,0.0,0.7892074198988196,0.9069694102806686,0.0,0.8409703504043127,0.7571409767013295,0.0,3640,4426,0,119,0.907563025210084,0.3171806167400881,0.0,0.0,0.907563025210084,0.0,0.0,1.0,0.0,0.0,0.9515418502202643,0,0,119,292,0.1952054794520548,0.10888252148997135,0.0,0.0,0.1952054794520548,0.0,0.0,1.0,0.0,0.0,0.32664756446991405,0,0,292,8185,0.7648136835675016,0.6064892329503375,0.9,0.64979665612291,0.907563025210084,0.7892074198988196,0.9038340666247643,0.1267605633802817,0.8409703504043127,0.7560462670872765,0.22245108135942326,3640,4426,119,0.09223902801884454,0.40145985401459855,1.0511190994422268
simple_pc1_gm_gate_t254,score_all_max,0.01,pc1__ge,-3.4616467709066274,643,8477,0.7412999882033738,0.614316132644437,0.9162087912087912,0.6296882060551288,0.39416058394160586,0.7080679405520169,0.8944159178433889,0.2488479262672811,0.7988023952095809,0.7390612569610183,0.3050847457627119,3640,4426,411,8066,0.7589883461443094,0.5207689883645695,0.9162087912087912,0.6296882060551288,0.0,0.7404529307282416,0.9069313374552554,0.0,0.819007858546169,0.7432991065475397,0.0,3640,4426,0,119,0.9915966386554622,0.33192686357243323,0.0,0.0,0.9915966386554622,0.0,0.0,1.0,0.0,0.0,0.9957805907172996,0,0,119,292,0.1506849315068493,0.08730158730158731,0.0,0.0,0.1506849315068493,0.0,0.0,1.0,0.0,0.0,0.2619047619047619,0,0,292,8185,0.7623701893708003,0.629092243023195,0.9162087912087912,0.6296882060551288,0.9915966386554622,0.7404529307282416,0.9066363044892648,0.19439868204283361,0.819007858546169,0.7432,0.325068870523416,3640,4426,119,0.06062484502851476,0.39416058394160586,1.0505984281072824
simple_pc1_gm_gate_t254,score_dual,0.01,pc1__ge,-6.099036591134506,1032,8477,0.7428335496048131,0.6020859954381504,0.8964285714285715,0.648666967916855,0.39659367396593675,0.7739563567362429,0.891338093759702,0.15673076923076923,0.8307026476578412,0.7508826990976853,0.22467263955892489,3640,4426,411,8066,0.7604760724026779,0.5359485831024164,0.8964285714285715,0.648666967916855,0.0,0.8092757936507936,0.9094076655052264,0.0,0.8506256517205423,0.757220097586707,0.0,3640,4426,0,119,0.957983193277311,0.3261802575107296,0.0,0.0,0.957983193277311,0.0,0.0,1.0,0.0,0.0,0.9785407725321889,0,0,119,292,0.1678082191780822,0.09579667644183774,0.0,0.0,0.1678082191780822,0.0,0.0,1.0,0.0,0.0,0.2873900293255132,0,0,292,8185,0.7633475870494808,0.6042507319219684,0.8964285714285715,0.648666967916855,0.957983193277311,0.8092757936507936,0.9079696394686907,0.11503531786074672,0.8506256517205423,0.7567211386399578,0.20540540540540542,3640,4426,119,0.10872799404909497,0.39659367396593675,1.0505100473612
simple_pc1_gm_gate_t254,score_all_max,0.08,pc1__ge,-6.099036591134506,974,8477,0.7501474578270615,0.608255521870088,0.9016483516483517,0.6586082241301401,0.39416058394160586,0.7780938833570412,0.889533109551419,0.164969450101833,0.8353270552303385,0.7568479813059846,0.23259152907394112,3640,4426,411,8066,0.7682866352591123,0.5395217397740494,0.9016483516483517,0.6586082241301401,0.0,0.8121752041573868,0.9095163806552262,0.0,0.854576227053769,0.763988992268379,0.0,3640,4426,0,119,0.8907563025210085,0.31407407407407406,0.0,0.0,0.8907563025210085,0.0,0.0,1.0,0.0,0.0,0.9422222222222222,0,0,119,292,0.1917808219178082,0.10727969348659004,0.0,0.0,0.1917808219178082,0.0,0.0,1.0,0.0,0.0,0.3218390804597701,0,0,292,8185,0.7700671960904093,0.6067122439040059,0.9016483516483517,0.6586082241301401,0.8907563025210085,0.8121752041573868,0.9058421379738968,0.11447084233261338,0.854576227053769,0.7626896912611199,0.20287081339712917,3640,4426,119,0.10166129432184479,0.39416058394160586,1.050484230872446
simple_pc1_gm_gate_t254,score_core,0.02,pc3__ge,-2.4479177605053817,893,8477,0.7455467736227439,0.6075909886959633,0.9010989010989011,0.64979665612291,0.39902676399026765,0.7557603686635944,0.8887515451174289,0.18201997780244172,0.8220551378446115,0.7507178282432785,0.25,3640,4426,411,8066,0.7632035705430201,0.5327941068785572,0.9010989010989011,0.64979665612291,0.0,0.7888407888407888,0.9069694102806686,0.0,0.8412413439343421,0.7571409767013295,0.0,3640,4426,0,119,0.907563025210084,0.3171806167400881,0.0,0.0,0.907563025210084,0.0,0.0,1.0,0.0,0.0,0.9515418502202643,0,0,119,292,0.1917808219178082,0.10727969348659004,0.0,0.0,0.1917808219178082,0.0,0.0,1.0,0.0,0.0,0.3218390804597701,0,0,292,8185,0.7653023824068418,0.6071180003543709,0.9010989010989011,0.64979665612291,0.907563025210084,0.7888407888407888,0.9038340666247643,0.12781065088757396,0.8412413439343421,0.7560462670872765,0.22406639004149378,3640,4426,119,0.09137118770146294,0.39902676399026765,1.0501077180885214
simple_pc1_gm_gate_t254,score_dual,0.03,pc3__le,2.1506591515994145,895,8477,0.7600566238055916,0.6141929314271842,0.9035714285714286,0.6778129236330773,0.3746958637469586,0.7812351543942992,0.89179548156956,0.17054263565891473,0.8379617834394905,0.7702182284980744,0.2343987823439878,3640,4426,411,8066,0.7796925365732705,0.54518552551316,0.9035714285714286,0.6778129236330773,0.0,0.8165342601787487,0.9121313469139556,0.0,0.8578508085550339,0.7777057679844459,0.0,3640,4426,0,119,0.8907563025210085,0.31407407407407406,0.0,0.0,0.8907563025210085,0.0,0.0,1.0,0.0,0.0,0.9422222222222222,0,0,119,292,0.1643835616438356,0.09411764705882353,0.0,0.0,0.1643835616438356,0.0,0.0,1.0,0.0,0.0,0.2823529411764706,0,0,292,8185,0.7813072693952352,0.6173024872199955,0.9035714285714286,0.6778129236330773,0.8907563025210085,0.8165342601787487,0.9085402786190188,0.1239766081871345,0.8578508085550339,0.7763975155279503,0.21765913757700206,3640,4426,119,0.0928589139598314,0.3746958637469586,1.0494711557417538
simple_pc1_gm_gate_t254,score_core,0.03,pc3__le,3.281193089810729,1061,8477,0.7473162675474814,0.6058450241277139,0.8961538461538462,0.6570266606416629,0.40145985401459855,0.7896393125151295,0.8873970094598719,0.15434985968194576,0.8395315918157251,0.7550305075944437,0.22297297297297297,3640,4426,411,8066,0.7649392511777833,0.5402960641643298,0.8961538461538462,0.6570266606416629,0.0,0.8239454407678707,0.9078988448329691,0.0,0.8585340176338992,0.7623541748590903,0.0,3640,4426,0,119,0.8571428571428571,0.3076923076923077,0.0,0.0,0.8571428571428571,0.0,0.0,1.0,0.0,0.0,0.9230769230769231,0,0,119,292,0.21575342465753425,0.11830985915492959,0.0,0.0,0.21575342465753425,0.0,0.0,1.0,0.0,0.0,0.35492957746478876,0,0,292,8185,0.7662797800855223,0.6001755063865839,0.8961538461538462,0.6570266606416629,0.8571428571428571,0.8239454407678707,0.9031055900621118,0.10139165009940358,0.8585340176338992,0.760659168192519,0.18133333333333335,3640,4426,119,0.11207537813042401,0.40145985401459855,1.0487616587226496
simple_pc1_gm_gate_t254,score_all_max,0.01,pc2__le,10.616705266871826,279,8477,0.763831544178365,0.6566135503573528,0.9162087912087912,0.6769091730682332,0.35036496350364965,0.6869207003089598,0.8983508245877061,0.5017421602787456,0.785167745732784,0.7720654554825409,0.41260744985673353,3640,4426,411,8066,0.7848995784775601,0.5276108115686804,0.9162087912087912,0.6769091730682332,0.0,0.7185951303598362,0.9128580134064594,0.0,0.8054582779857505,0.7773741567202906,0.0,3640,4426,0,119,0.9915966386554622,0.33192686357243323,0.0,0.0,0.9915966386554622,0.0,0.0,1.0,0.0,0.0,0.9957805907172996,0,0,119,292,0.08904109589041095,0.05450733752620545,0.0,0.0,0.08904109589041095,0.0,0.0,1.0,0.0,0.0,0.16352201257861634,0,0,292,8185,0.7879047037263287,0.7345947421556733,0.9162087912087912,0.6769091730682332,0.9915966386554622,0.7185951303598362,0.9125799573560768,0.4521072796934866,0.8054582779857505,0.7772733169023219,0.6210526315789474,3640,4426,119,0.017728737912224152,0.35036496350364965,1.0485549415865232
simple_pc1_gm_gate_t254,score_core,0.01,pc2__le,14.810379664891448,607,8477,0.7444850772679014,0.6177708806565031,0.9002747252747253,0.649570718481699,0.38686131386861317,0.7065545493747305,0.8917493796526055,0.25853658536585367,0.7917371345735685,0.7516339869281046,0.30994152046783624,3640,4426,411,8066,0.7627076617902306,0.5227053234549364,0.9002747252747253,0.649570718481699,0.0,0.738063063063063,0.9069400630914827,0.0,0.8111386138613862,0.7569773565034229,0.0,3640,4426,0,119,0.9747899159663865,0.32907801418439714,0.0,0.0,0.9747899159663865,0.0,0.0,1.0,0.0,0.0,0.9872340425531915,0,0,119,292,0.14726027397260275,0.08557213930348258,0.0,0.0,0.14726027397260275,0.0,0.0,1.0,0.0,0.0,0.25671641791044775,0,0,292,8185,0.765791081246182,0.6345208069543945,0.9002747252747253,0.649570718481699,0.9747899159663865,0.738063063063063,0.9060825716987079,0.20279720279720279,0.8111386138613862,0.7566785103303066,0.3357452966714906,3640,4426,119,0.05653359781800149,0.38686131386861317,1.0481940656127644
simple_pc1_gm_gate_t254,score_core,0.03,none,,1069,8477,0.7463725374542881,0.6050139925655985,0.8961538461538462,0.6552191595119747,0.40145985401459855,0.7896393125151295,0.8871214438666258,0.1532033426183844,0.8395315918157251,0.7537361923326835,0.2217741935483871,3640,4426,411,8066,0.7639474336722043,0.5398629990984537,0.8961538461538462,0.6552191595119747,0.0,0.8239454407678707,0.9076682316118936,0.0,0.8585340176338992,0.7610549796614617,0.0,3640,4426,0,119,0.8571428571428571,0.3076923076923077,0.0,0.0,0.8571428571428571,0.0,0.0,1.0,0.0,0.0,0.9230769230769231,0,0,119,292,0.21575342465753425,0.11830985915492959,0.0,0.0,0.21575342465753425,0.0,0.0,1.0,0.0,0.0,0.35492957746478876,0,0,292,8185,0.7653023824068418,0.599316021225425,0.8961538461538462,0.6552191595119747,0.8571428571428571,0.8239454407678707,0.9028642590286425,0.10059171597633136,0.8585340176338992,0.7593610892903901,0.18005295675198588,3640,4426,119,0.11306719563600298,0.40145985401459855,1.0478179286294564
simple_pc1_gm_gate_t254,score_core,0.03,qrs_visibility__le,0.2800807397384144,1069,8477,0.7463725374542881,0.6050139925655985,0.8961538461538462,0.6552191595119747,0.40145985401459855,0.7896393125151295,0.8871214438666258,0.1532033426183844,0.8395315918157251,0.7537361923326835,0.2217741935483871,3640,4426,411,8066,0.7639474336722043,0.5398629990984537,0.8961538461538462,0.6552191595119747,0.0,0.8239454407678707,0.9076682316118936,0.0,0.8585340176338992,0.7610549796614617,0.0,3640,4426,0,119,0.8571428571428571,0.3076923076923077,0.0,0.0,0.8571428571428571,0.0,0.0,1.0,0.0,0.0,0.9230769230769231,0,0,119,292,0.21575342465753425,0.11830985915492959,0.0,0.0,0.21575342465753425,0.0,0.0,1.0,0.0,0.0,0.35492957746478876,0,0,292,8185,0.7653023824068418,0.599316021225425,0.8961538461538462,0.6552191595119747,0.8571428571428571,0.8239454407678707,0.9028642590286425,0.10059171597633136,0.8585340176338992,0.7593610892903901,0.18005295675198588,3640,4426,119,0.11306719563600298,0.40145985401459855,1.0478179286294564
simple_pc1_gm_gate_t254,score_core,0.03,qrs_visibility__le,0.3732307518330272,1069,8477,0.7463725374542881,0.6050139925655985,0.8961538461538462,0.6552191595119747,0.40145985401459855,0.7896393125151295,0.8871214438666258,0.1532033426183844,0.8395315918157251,0.7537361923326835,0.2217741935483871,3640,4426,411,8066,0.7639474336722043,0.5398629990984537,0.8961538461538462,0.6552191595119747,0.0,0.8239454407678707,0.9076682316118936,0.0,0.8585340176338992,0.7610549796614617,0.0,3640,4426,0,119,0.8571428571428571,0.3076923076923077,0.0,0.0,0.8571428571428571,0.0,0.0,1.0,0.0,0.0,0.9230769230769231,0,0,119,292,0.21575342465753425,0.11830985915492959,0.0,0.0,0.21575342465753425,0.0,0.0,1.0,0.0,0.0,0.35492957746478876,0,0,292,8185,0.7653023824068418,0.599316021225425,0.8961538461538462,0.6552191595119747,0.8571428571428571,0.8239454407678707,0.9028642590286425,0.10059171597633136,0.8585340176338992,0.7593610892903901,0.18005295675198588,3640,4426,119,0.11306719563600298,0.40145985401459855,1.0478179286294564
simple_pc1_gm_gate_t254,score_all_max,0.03,pc3__ge,-1.610530736647411,740,8477,0.7482599976406747,0.6128085659085291,0.9107142857142857,0.6482150926344329,0.38686131386861317,0.7348703170028819,0.8915475450590429,0.21256684491978609,0.8133971291866029,0.750654107796965,0.274374460742019,3640,4426,411,8066,0.7666749318125465,0.5298706835082541,0.9107142857142857,0.6482150926344329,0.0,0.767538782125492,0.9084863837872071,0.0,0.8330192235205428,0.7565928270042194,0.0,3640,4426,0,119,0.9243697478991597,0.32023289665211063,0.0,0.0,0.9243697478991597,0.0,0.0,1.0,0.0,0.0,0.9606986899563319,0,0,119,292,0.1678082191780822,0.09579667644183774,0.0,0.0,0.1678082191780822,0.0,0.0,1.0,0.0,0.0,0.2873900293255132,0,0,292,8185,0.7689676237018938,0.6192213048665781,0.9107142857142857,0.6482150926344329,0.9243697478991597,0.767538782125492,0.905904641616672,0.15736766809728184,0.8330192235205428,0.755696035822468,0.26894865525672373,3640,4426,119,0.07302256384825193,0.38686131386861317,1.0474881525562758
simple_pc1_gm_gate_t254,score_all_max,0.01,pc2__ge,-1.0634046292314407,1410,8477,0.7315087884864928,0.598710035176906,0.8854395604395604,0.6303660189787619,0.45742092457420924,0.8261984106639323,0.883470550981634,0.1325811001410437,0.854793793926535,0.7357594936708861,0.20557681793329688,3640,4426,411,8066,0.745474832630796,0.538294244657881,0.8854395604395604,0.6303660189787619,0.0,0.8571808510638298,0.9070221066319896,0.0,0.8710810810810811,0.743801652892562,0.0,3640,4426,0,119,0.6638655462184874,0.265993265993266,0.0,0.0,0.6638655462184874,0.0,0.0,1.0,0.0,0.0,0.797979797979798,0,0,119,292,0.3732876712328767,0.18121363258520365,0.0,0.0,0.3732876712328767,0.0,0.0,1.0,0.0,0.0,0.543640897755611,0,0,292,8185,0.7442883323152107,0.5738607135644901,0.8854395604395604,0.6303660189787619,0.6638655462184874,0.8571808510638298,0.8953786906290115,0.060351413292589765,0.8710810810810811,0.7398568019093079,0.11064425770308123,3640,4426,119,0.15249194148276718,0.45742092457420924,1.0471790947051707
simple_pc1_gm_gate_t254,score_dual,0.02,pc3__le,3.281193089810729,1025,8477,0.7487318626872714,0.605538887789622,0.9,0.6577044735652959,0.38929440389294406,0.785234899328859,0.8896699266503667,0.15488867376573087,0.8387096774193549,0.756300337750065,0.22160664819944598,3640,4426,411,8066,0.7670468633771386,0.5406022124204201,0.9,0.6577044735652959,0.0,0.8202303455182774,0.90997186620819,0.0,0.8582656536547026,0.7635409836065574,0.0,3640,4426,0,119,0.8991596638655462,0.31563421828908556,0.0,0.0,0.8991596638655462,0.0,0.0,1.0,0.0,0.0,0.9469026548672567,0,0,119,292,0.1815068493150685,0.10241545893719807,0.0,0.0,0.1815068493150685,0.0,0.0,1.0,0.0,0.0,0.3072463768115942,0,0,292,8185,0.7689676237018938,0.6051097873668647,0.9,0.6577044735652959,0.8991596638655462,0.8202303455182774,0.9065711616318903,0.10918367346938776,0.8582656536547026,0.7623412334686395,0.19472247497725204,3640,4426,119,0.10823208529630549,0.38929440389294406,1.047084881026894
simple_pc1_gm_gate_t254,score_all_max,0.1,pc1__ge,-6.099036591134506,941,8477,0.7513271204435531,0.6086409231711238,0.903021978021978,0.6604157252598283,0.38686131386861317,0.775053053525112,0.8892607240644965,0.16754478398314016,0.8341581017637356,0.7579411383378711,0.2338235294117647,3640,4426,411,8066,0.7698983387056781,0.539572380392912,0.903021978021978,0.6604157252598283,0.0,0.8090081220772828,0.9097416744475568,0.0,0.8534337271193042,0.7652834140594319,0.0,3640,4426,0,119,0.8823529411764706,0.3125,0.0,0.0,0.8823529411764706,0.0,0.0,1.0,0.0,0.0,0.9375,0,0,119,292,0.18493150684931506,0.10404624277456648,0.0,0.0,0.18493150684931506,0.0,0.0,1.0,0.0,0.0,0.31213872832369943,0,0,292,8185,0.7715332926084301,0.6081392544120563,0.903021978021978,0.6604157252598283,0.8823529411764706,0.8090081220772828,0.9057948559033158,0.11731843575418995,0.8534337271193042,0.7638834444008885,0.20710059171597633,3640,4426,119,0.09794197867592364,0.38686131386861317,1.0468212475014356
simple_pc1_gm_gate_t254,score_all_max,0.2,pc3__le,3.281193089810729,967,8477,0.7549840745546773,0.6100658890849912,0.904945054945055,0.6662901039313149,0.3819951338199513,0.7872848948374761,0.8887884267631103,0.16102564102564101,0.8420245398773006,0.7616219008264463,0.22655122655122656,3640,4426,411,8066,0.7739895859161914,0.5435868938864227,0.904945054945055,0.6662901039313149,0.0,0.8216512846096283,0.9104661932695276,0.0,0.8612890573931233,0.7694716242661448,0.0,3640,4426,0,119,0.865546218487395,0.3093093093093093,0.0,0.0,0.865546218487395,0.0,0.0,1.0,0.0,0.0,0.9279279279279279,0,0,119,292,0.18493150684931506,0.10404624277456648,0.0,0.0,0.18493150684931506,0.0,0.0,1.0,0.0,0.0,0.31213872832369943,0,0,292,8185,0.775320708613317,0.6090782491858884,0.904945054945055,0.6662901039313149,0.865546218487395,0.8216512846096283,0.9059907834101383,0.11183496199782844,0.8612890573931233,0.7678687670876188,0.19807692307692307,3640,4426,119,0.10141333994545004,0.3819951338199513,1.0462540301921668
simple_pc1_gm_gate_t254,score_dual,0.02,none,,1033,8477,0.7477881325940781,0.6047006181003565,0.9,0.6558969724356077,0.38929440389294406,0.785234899328859,0.8893995098039216,0.15369836695485112,0.8387096774193549,0.7550065019505852,0.22038567493112948,3640,4426,411,8066,0.7660550458715596,0.5401693354289908,0.9,0.6558969724356077,0.0,0.8202303455182774,0.909746161078032,0.0,0.8582656536547026,0.7622423526322699,0.0,3640,4426,0,119,0.8991596638655462,0.31563421828908556,0.0,0.0,0.8991596638655462,0.0,0.0,1.0,0.0,0.0,0.9469026548672567,0,0,119,292,0.1815068493150685,0.10241545893719807,0.0,0.0,0.1815068493150685,0.0,0.0,1.0,0.0,0.0,0.3072463768115942,0,0,292,8185,0.7679902260232132,0.6042081024054444,0.9,0.6558969724356077,0.8991596638655462,0.8202303455182774,0.9063378083047143,0.1082995951417004,0.8582656536547026,0.7610433870756325,0.1933152664859982,3640,4426,119,0.10922390280188446,0.38929440389294406,1.0461411509337006
simple_pc1_gm_gate_t254,score_dual,0.02,qrs_visibility__le,0.2800807397384144,1033,8477,0.7477881325940781,0.6047006181003565,0.9,0.6558969724356077,0.38929440389294406,0.785234899328859,0.8893995098039216,0.15369836695485112,0.8387096774193549,0.7550065019505852,0.22038567493112948,3640,4426,411,8066,0.7660550458715596,0.5401693354289908,0.9,0.6558969724356077,0.0,0.8202303455182774,0.909746161078032,0.0,0.8582656536547026,0.7622423526322699,0.0,3640,4426,0,119,0.8991596638655462,0.31563421828908556,0.0,0.0,0.8991596638655462,0.0,0.0,1.0,0.0,0.0,0.9469026548672567,0,0,119,292,0.1815068493150685,0.10241545893719807,0.0,0.0,0.1815068493150685,0.0,0.0,1.0,0.0,0.0,0.3072463768115942,0,0,292,8185,0.7679902260232132,0.6042081024054444,0.9,0.6558969724356077,0.8991596638655462,0.8202303455182774,0.9063378083047143,0.1082995951417004,0.8582656536547026,0.7610433870756325,0.1933152664859982,3640,4426,119,0.10922390280188446,0.38929440389294406,1.0461411509337006
simple_pc1_gm_gate_t254,score_dual,0.02,qrs_visibility__le,0.3732307518330272,1033,8477,0.7477881325940781,0.6047006181003565,0.9,0.6558969724356077,0.38929440389294406,0.785234899328859,0.8893995098039216,0.15369836695485112,0.8387096774193549,0.7550065019505852,0.22038567493112948,3640,4426,411,8066,0.7660550458715596,0.5401693354289908,0.9,0.6558969724356077,0.0,0.8202303455182774,0.909746161078032,0.0,0.8582656536547026,0.7622423526322699,0.0,3640,4426,0,119,0.8991596638655462,0.31563421828908556,0.0,0.0,0.8991596638655462,0.0,0.0,1.0,0.0,0.0,0.9469026548672567,0,0,119,292,0.1815068493150685,0.10241545893719807,0.0,0.0,0.1815068493150685,0.0,0.0,1.0,0.0,0.0,0.3072463768115942,0,0,292,8185,0.7679902260232132,0.6042081024054444,0.9,0.6558969724356077,0.8991596638655462,0.8202303455182774,0.9063378083047143,0.1082995951417004,0.8582656536547026,0.7610433870756325,0.1933152664859982,3640,4426,119,0.10922390280188446,0.38929440389294406,1.0461411509337006
simple_pc1_gm_gate_t254,score_all_max,0.15,pc3__le,3.281193089810729,996,8477,0.7534505131532382,0.6088091671764375,0.903021978021978,0.6647085404428378,0.3844282238442822,0.7897645362806343,0.8885533071579583,0.15737051792828685,0.8426044603947705,0.7605014863642239,0.223321554770318,3640,4426,411,8066,0.7722539052814282,0.5433905608807276,0.903021978021978,0.6647085404428378,0.0,0.824222668004012,0.9102722772277227,0.0,0.8618248557944416,0.7683468268477409,0.0,3640,4426,0,119,0.865546218487395,0.3093093093093093,0.0,0.0,0.865546218487395,0.0,0.0,1.0,0.0,0.0,0.9279279279279279,0,0,119,292,0.18835616438356165,0.10566762728146013,0.0,0.0,0.18835616438356165,0.0,0.0,1.0,0.0,0.0,0.3170028818443804,0,0,292,8185,0.7736102626756262,0.6071512012250239,0.903021978021978,0.6647085404428378,0.865546218487395,0.824222668004012,0.9057881773399015,0.10853530031612224,0.8618248557944416,0.766744852749544,0.19288389513108614,3640,4426,119,0.10488470121497645,0.3844282238442822,1.0460857489293804
simple_pc1_gm_gate_t254,score_all_max,0.2,none,,970,8477,0.7546301757697299,0.6097428087485438,0.904945054945055,0.6656122910076819,0.3819951338199513,0.7872848948374761,0.8886877828054298,0.1605316973415133,0.8420245398773006,0.7611419713215347,0.22606191504679626,3640,4426,411,8066,0.7736176543515993,0.5434262924278305,0.904945054945055,0.6656122910076819,0.0,0.8216512846096283,0.9103831891223733,0.0,0.8612890573931233,0.7689898198903681,0.0,3640,4426,0,119,0.865546218487395,0.3093093093093093,0.0,0.0,0.865546218487395,0.0,0.0,1.0,0.0,0.0,0.9279279279279279,0,0,119,292,0.18493150684931506,0.10404624277456648,0.0,0.0,0.18493150684931506,0.0,0.0,1.0,0.0,0.0,0.31213872832369943,0,0,292,8185,0.7749541844838118,0.608727862880716,0.904945054945055,0.6656122910076819,0.865546218487395,0.8216512846096283,0.9059040590405905,0.11147186147186147,0.8612890573931233,0.7673873404532431,0.1975071907957814,3640,4426,119,0.10178527151004216,0.3819951338199513,1.0459001314072194
simple_pc1_gm_gate_t254,score_all_max,0.2,qrs_visibility__le,0.2800807397384144,970,8477,0.7546301757697299,0.6097428087485438,0.904945054945055,0.6656122910076819,0.3819951338199513,0.7872848948374761,0.8886877828054298,0.1605316973415133,0.8420245398773006,0.7611419713215347,0.22606191504679626,3640,4426,411,8066,0.7736176543515993,0.5434262924278305,0.904945054945055,0.6656122910076819,0.0,0.8216512846096283,0.9103831891223733,0.0,0.8612890573931233,0.7689898198903681,0.0,3640,4426,0,119,0.865546218487395,0.3093093093093093,0.0,0.0,0.865546218487395,0.0,0.0,1.0,0.0,0.0,0.9279279279279279,0,0,119,292,0.18493150684931506,0.10404624277456648,0.0,0.0,0.18493150684931506,0.0,0.0,1.0,0.0,0.0,0.31213872832369943,0,0,292,8185,0.7749541844838118,0.608727862880716,0.904945054945055,0.6656122910076819,0.865546218487395,0.8216512846096283,0.9059040590405905,0.11147186147186147,0.8612890573931233,0.7673873404532431,0.1975071907957814,3640,4426,119,0.10178527151004216,0.3819951338199513,1.0459001314072194
simple_pc1_gm_gate_t254,score_all_max,0.2,qrs_visibility__le,0.3732307518330272,970,8477,0.7546301757697299,0.6097428087485438,0.904945054945055,0.6656122910076819,0.3819951338199513,0.7872848948374761,0.8886877828054298,0.1605316973415133,0.8420245398773006,0.7611419713215347,0.22606191504679626,3640,4426,411,8066,0.7736176543515993,0.5434262924278305,0.904945054945055,0.6656122910076819,0.0,0.8216512846096283,0.9103831891223733,0.0,0.8612890573931233,0.7689898198903681,0.0,3640,4426,0,119,0.865546218487395,0.3093093093093093,0.0,0.0,0.865546218487395,0.0,0.0,1.0,0.0,0.0,0.9279279279279279,0,0,119,292,0.18493150684931506,0.10404624277456648,0.0,0.0,0.18493150684931506,0.0,0.0,1.0,0.0,0.0,0.31213872832369943,0,0,292,8185,0.7749541844838118,0.608727862880716,0.904945054945055,0.6656122910076819,0.865546218487395,0.8216512846096283,0.9059040590405905,0.11147186147186147,0.8612890573931233,0.7673873404532431,0.1975071907957814,3640,4426,119,0.10178527151004216,0.3819951338199513,1.0459001314072194
simple_pc1_gm_gate_t254,score_dual,0.01,pc1__ge,-5.359154835604749,900,8477,0.7436593134363572,0.6039013432176777,0.8994505494505495,0.648666967916855,0.38686131386861317,0.7529898804047838,0.891338093759702,0.1751101321585903,0.8197295943915874,0.7508826990976853,0.24109173616376042,3640,4426,411,8066,0.761839821472849,0.5322357590246288,0.8994505494505495,0.648666967916855,0.0,0.7870192307692307,0.9094076655052264,0.0,0.8394871794871794,0.757220097586707,0.0,3640,4426,0,119,0.957983193277311,0.3261802575107296,0.0,0.0,0.957983193277311,0.0,0.0,1.0,0.0,0.0,0.9785407725321889,0,0,119,292,0.1541095890410959,0.08902077151335312,0.0,0.0,0.1541095890410959,0.0,0.0,1.0,0.0,0.0,0.26706231454005935,0,0,292,8185,0.7646915088576665,0.6094625147321279,0.8994505494505495,0.648666967916855,0.957983193277311,0.7870192307692307,0.9079696394686907,0.1320973348783314,0.8394871794871794,0.7567211386399578,0.23217922606924643,3640,4426,119,0.0928589139598314,0.38686131386861317,1.0458746906381329
simple_pc1_gm_gate_t254,score_all_max,0.15,none,,999,8477,0.7530966143682907,0.6084914104941008,0.903021978021978,0.6640307275192047,0.3844282238442822,0.7897645362806343,0.8884522370012092,0.15690168818272096,0.8426044603947705,0.7600206878717352,0.22284908321579688,3640,4426,411,8066,0.7718819737168361,0.5432296656262334,0.903021978021978,0.6640307275192047,0.0,0.824222668004012,0.9101889129761536,0.0,0.8618248557944416,0.7678641410842586,0.0,3640,4426,0,119,0.865546218487395,0.3093093093093093,0.0,0.0,0.865546218487395,0.0,0.0,1.0,0.0,0.0,0.9279279279279279,0,0,119,292,0.18835616438356165,0.10566762728146013,0.0,0.0,0.18835616438356165,0.0,0.0,1.0,0.0,0.0,0.3170028818443804,0,0,292,8185,0.7732437385461209,0.6068103357195501,0.903021978021978,0.6640307275192047,0.865546218487395,0.824222668004012,0.9057010785824345,0.10819327731092437,0.8618248557944416,0.7662625472558988,0.19234360410831,3640,4426,119,0.10525663277956857,0.3844282238442822,1.045731850144433
simple_pc1_gm_gate_t254,score_all_max,0.15,qrs_visibility__le,0.2800807397384144,999,8477,0.7530966143682907,0.6084914104941008,0.903021978021978,0.6640307275192047,0.3844282238442822,0.7897645362806343,0.8884522370012092,0.15690168818272096,0.8426044603947705,0.7600206878717352,0.22284908321579688,3640,4426,411,8066,0.7718819737168361,0.5432296656262334,0.903021978021978,0.6640307275192047,0.0,0.824222668004012,0.9101889129761536,0.0,0.8618248557944416,0.7678641410842586,0.0,3640,4426,0,119,0.865546218487395,0.3093093093093093,0.0,0.0,0.865546218487395,0.0,0.0,1.0,0.0,0.0,0.9279279279279279,0,0,119,292,0.18835616438356165,0.10566762728146013,0.0,0.0,0.18835616438356165,0.0,0.0,1.0,0.0,0.0,0.3170028818443804,0,0,292,8185,0.7732437385461209,0.6068103357195501,0.903021978021978,0.6640307275192047,0.865546218487395,0.824222668004012,0.9057010785824345,0.10819327731092437,0.8618248557944416,0.7662625472558988,0.19234360410831,3640,4426,119,0.10525663277956857,0.3844282238442822,1.045731850144433
simple_pc1_gm_gate_t254,score_all_max,0.15,qrs_visibility__le,0.3732307518330272,999,8477,0.7530966143682907,0.6084914104941008,0.903021978021978,0.6640307275192047,0.3844282238442822,0.7897645362806343,0.8884522370012092,0.15690168818272096,0.8426044603947705,0.7600206878717352,0.22284908321579688,3640,4426,411,8066,0.7718819737168361,0.5432296656262334,0.903021978021978,0.6640307275192047,0.0,0.824222668004012,0.9101889129761536,0.0,0.8618248557944416,0.7678641410842586,0.0,3640,4426,0,119,0.865546218487395,0.3093093093093093,0.0,0.0,0.865546218487395,0.0,0.0,1.0,0.0,0.0,0.9279279279279279,0,0,119,292,0.18835616438356165,0.10566762728146013,0.0,0.0,0.18835616438356165,0.0,0.0,1.0,0.0,0.0,0.3170028818443804,0,0,292,8185,0.7732437385461209,0.6068103357195501,0.903021978021978,0.6640307275192047,0.865546218487395,0.824222668004012,0.9057010785824345,0.10819327731092437,0.8618248557944416,0.7662625472558988,0.19234360410831,3640,4426,119,0.10525663277956857,0.3844282238442822,1.045731850144433
simple_pc1_gm_gate_t254,score_dual,0.01,pc3__ge,-2.4479177605053817,896,8477,0.744249144744603,0.604002567476004,0.9010989010989011,0.648666967916855,0.3844282238442822,0.7536764705882353,0.891338093759702,0.1747787610619469,0.8208208208208209,0.7508826990976853,0.2403041825095057,3640,4426,411,8066,0.7625836846020332,0.532640797192066,0.9010989010989011,0.648666967916855,0.0,0.7878933461446073,0.9094076655052264,0.0,0.8407022939894913,0.757220097586707,0.0,3640,4426,0,119,0.957983193277311,0.3261802575107296,0.0,0.0,0.957983193277311,0.0,0.0,1.0,0.0,0.0,0.9785407725321889,0,0,119,292,0.1506849315068493,0.08730158730158731,0.0,0.0,0.1506849315068493,0.0,0.0,1.0,0.0,0.0,0.2619047619047619,0,0,292,8185,0.7654245571166769,0.6101047124767555,0.9010989010989011,0.648666967916855,0.957983193277311,0.7878933461446073,0.9079696394686907,0.1325581395348837,0.8407022939894913,0.7567211386399578,0.23289070480081717,3640,4426,119,0.09248698239523928,0.3844282238442822,1.0450992418077256
simple_pc1_gm_gate_t254,score_all_max,0.08,pc3__ge,-2.4479177605053817,835,8477,0.7510911879202548,0.6104352425074064,0.9052197802197802,0.6586082241301401,0.3819951338199513,0.7562543034197843,0.889533109551419,0.18623962040332148,0.8240590221333,0.7568479813059846,0.2503987240829346,3640,4426,411,8066,0.7698983387056781,0.5357463840723985,0.9052197802197802,0.6586082241301401,0.0,0.7892215568862275,0.9095163806552262,0.0,0.8432501599488164,0.763988992268379,0.0,3640,4426,0,119,0.8907563025210085,0.31407407407407406,0.0,0.0,0.8907563025210085,0.0,0.0,1.0,0.0,0.0,0.9422222222222222,0,0,119,292,0.17465753424657535,0.09912536443148688,0.0,0.0,0.17465753424657535,0.0,0.0,1.0,0.0,0.0,0.29737609329446063,0,0,292,8185,0.7716554673182651,0.6128837191555989,0.9052197802197802,0.6586082241301401,0.8907563025210085,0.7892215568862275,0.9058421379738968,0.13383838383838384,0.8432501599488164,0.7626896912611199,0.2327113062568606,3640,4426,119,0.08504835110339698,0.3819951338199513,1.0446015602723753
simple_pc1_gm_gate_t254,score_all_max,0.08,pc1__ge,-5.359154835604749,830,8477,0.7508552553969565,0.6104311137143222,0.9046703296703297,0.6586082241301401,0.3819951338199513,0.7549289316827144,0.889533109551419,0.1873508353221957,0.8230442389402649,0.7568479813059846,0.2514011208967174,3640,4426,411,8066,0.7696503843292835,0.5353961602531426,0.9046703296703297,0.6586082241301401,0.0,0.7877990430622009,0.9095163806552262,0.0,0.8421994884910486,0.763988992268379,0.0,3640,4426,0,119,0.8907563025210085,0.31407407407407406,0.0,0.0,0.8907563025210085,0.0,0.0,1.0,0.0,0.0,0.9422222222222222,0,0,119,292,0.17465753424657535,0.09912536443148688,0.0,0.0,0.17465753424657535,0.0,0.0,1.0,0.0,0.0,0.29737609329446063,0,0,292,8185,0.771411117898595,0.6129615882470437,0.9046703296703297,0.6586082241301401,0.8907563025210085,0.7877990430622009,0.9058421379738968,0.13468869123252858,0.8421994884910486,0.7626896912611199,0.23399558498896247,3640,4426,119,0.08442846516241012,0.3819951338199513,1.0443656277490772
simple_pc1_gm_gate_t254,score_core,0.01,pc1__ge,-3.4616467709066274,566,8477,0.7461366049309898,0.6180526380291378,0.9167582417582417,0.640533212833258,0.3722627737226277,0.7068417708112688,0.8909490886235072,0.2665505226480836,0.7982298768089942,0.7452681388012619,0.31065989847715736,3640,4426,411,8066,0.7651872055541781,0.52293021967078,0.9167582417582417,0.640533212833258,0.0,0.7390919158361019,0.9057507987220448,0.0,0.8183936235438382,0.7503970354685019,0.0,3640,4426,0,119,0.9747899159663865,0.32907801418439714,0.0,0.0,0.9747899159663865,0.0,0.0,1.0,0.0,0.0,0.9872340425531915,0,0,119,292,0.1267123287671233,0.07497467071935157,0.0,0.0,0.1267123287671233,0.0,0.0,1.0,0.0,0.0,0.22492401215805471,0,0,292,8185,0.7682345754428833,0.6407171265342265,0.9167582417582417,0.640533212833258,0.9747899159663865,0.7390919158361019,0.9048834982444941,0.21601489757914338,0.8183936235438382,0.7500992194734754,0.35365853658536583,3640,4426,119,0.05219439623109348,0.3722627737226277,1.041653912443936
simple_pc1_gm_gate_t254,score_all_max,0.01,qrs_visibility__ge,0.0524517835345784,336,8477,0.7606464551138374,0.6435886134572951,0.9005494505494506,0.684365115228197,0.34306569343065696,0.6883662326753465,0.8985464253930584,0.40988372093023256,0.7802904070459414,0.7769654995511094,0.37350993377483444,3640,4426,411,8066,0.7819241259608232,0.5277567189561433,0.9005494505494506,0.684365115228197,0.0,0.7207563764291997,0.9137254901960784,0.0,0.8006839276990718,0.7825862291693579,0.0,3640,4426,0,119,0.9915966386554622,0.33192686357243323,0.0,0.0,0.9915966386554622,0.0,0.0,1.0,0.0,0.0,0.9957805907172996,0,0,119,292,0.07876712328767123,0.04867724867724868,0.0,0.0,0.07876712328767123,0.0,0.0,1.0,0.0,0.0,0.14603174603174604,0,0,292,8185,0.7849725106902871,0.7065109033399418,0.9005494505494506,0.684365115228197,0.9915966386554622,0.7207563764291997,0.9134499396863691,0.367601246105919,0.8006839276990718,0.782485145957117,0.5363636363636364,3640,4426,119,0.025167369204066453,0.34306569343065696,1.0412740121060373
simple_pc1_gm_gate_t254,score_all_max,0.1,pc3__ge,-2.4479177605053817,802,8477,0.7522708505367465,0.6110453446605483,0.9065934065934066,0.6604157252598283,0.3746958637469586,0.7534246575342466,0.8892607240644965,0.19012345679012346,0.8229426433915212,0.7579411383378711,0.25225225225225223,3640,4426,411,8066,0.771510042152244,0.5358141344895482,0.9065934065934066,0.6604157252598283,0.0,0.7862759113652609,0.9097416744475568,0.0,0.8421589894092127,0.7652834140594319,0.0,3640,4426,0,119,0.8823529411764706,0.3125,0.0,0.0,0.8823529411764706,0.0,0.0,1.0,0.0,0.0,0.9375,0,0,119,292,0.1678082191780822,0.09579667644183774,0.0,0.0,0.1678082191780822,0.0,0.0,1.0,0.0,0.0,0.2873900293255132,0,0,292,8185,0.7731215638362859,0.6148929324821549,0.9065934065934066,0.6604157252598283,0.8823529411764706,0.7862759113652609,0.9057948559033158,0.13797634691195795,0.8421589894092127,0.7638834444008885,0.23863636363636365,3640,4426,119,0.08132903545747583,0.3746958637469586,1.040938576901365
simple_pc1_gm_gate_t254,score_all_max,0.1,pc1__ge,-5.359154835604749,798,8477,0.7520349180134481,0.6110187947396541,0.906043956043956,0.6604157252598283,0.3746958637469586,0.7522810218978102,0.8892607240644965,0.19106699751861042,0.8220338983050848,0.7579411383378711,0.2530813475760066,3640,4426,411,8066,0.7712620877758493,0.5355008821000725,0.906043956043956,0.6604157252598283,0.0,0.7850511782908831,0.9097416744475568,0.0,0.8412192322407857,0.7652834140594319,0.0,3640,4426,0,119,0.8823529411764706,0.3125,0.0,0.0,0.8823529411764706,0.0,0.0,1.0,0.0,0.0,0.9375,0,0,119,292,0.1678082191780822,0.09579667644183774,0.0,0.0,0.1678082191780822,0.0,0.0,1.0,0.0,0.0,0.2873900293255132,0,0,292,8185,0.7728772144166157,0.6149429013463116,0.906043956043956,0.6604157252598283,0.8823529411764706,0.7850511782908831,0.9057948559033158,0.13870541611624834,0.8412192322407857,0.7638834444008885,0.23972602739726026,3640,4426,119,0.08083312670468634,0.3746958637469586,1.0407026443780667
simple_pc1_gm_gate_t254,score_dual,0.03,pc3__le,3.281193089810729,975,8477,0.7510911879202548,0.6058126851008108,0.9035714285714286,0.6606416629010393,0.3746958637469586,0.7819781264859724,0.889294403892944,0.15666327568667346,0.8383889880193729,0.7581021519315531,0.22094691535150646,3640,4426,411,8066,0.7702702702702703,0.5412812556850568,0.9035714285714286,0.6606416629010393,0.0,0.8173459244532804,0.91005291005291,0.0,0.8582985386221295,0.765545228433041,0.0,3640,4426,0,119,0.8907563025210085,0.31407407407407406,0.0,0.0,0.8907563025210085,0.0,0.0,1.0,0.0,0.0,0.9422222222222222,0,0,119,292,0.1643835616438356,0.09411764705882353,0.0,0.0,0.1643835616438356,0.0,0.0,1.0,0.0,0.0,0.2823529411764706,0,0,292,8185,0.7720219914477703,0.6078939001566361,0.9035714285714286,0.6606416629010393,0.8907563025210085,0.8173459244532804,0.9063856168629882,0.11336898395721925,0.8582985386221295,0.7642446419236801,0.20113851992409867,3640,4426,119,0.10277708901562113,0.3746958637469586,1.040505719856417
simple_pc1_gm_gate_t254,score_all_max,0.05,pc3__ge,-1.610530736647411,685,8477,0.7510911879202548,0.6139977388889823,0.9120879120879121,0.6540894713059195,0.36982968369829683,0.7322452580502867,0.8907692307692308,0.21933621933621933,0.8123317837044287,0.7542991141219385,0.2753623188405797,3640,4426,411,8066,0.770518224646665,0.5309404110723531,0.9120879120879121,0.6540894713059195,0.0,0.7649769585253456,0.9089481946624803,0.0,0.8320802005012531,0.7607410327158061,0.0,3640,4426,0,119,0.9159663865546218,0.31871345029239767,0.0,0.0,0.9159663865546218,0.0,0.0,1.0,0.0,0.0,0.956140350877193,0,0,119,292,0.14726027397260275,0.08557213930348258,0.0,0.0,0.14726027397260275,0.0,0.0,1.0,0.0,0.0,0.25671641791044775,0,0,292,8185,0.7726328649969456,0.6251026873061106,0.9120879120879121,0.6540894713059195,0.9159663865546218,0.7649769585253456,0.9061032863849765,0.1676923076923077,0.8320802005012531,0.7597428159034247,0.2834850455136541,3640,4426,119,0.06707165881477808,0.36982968369829683,1.0400155762937424
simple_pc1_gm_gate_t254,score_dual,0.03,none,,981,8477,0.7503833903503598,0.6051748105714118,0.9035714285714286,0.6592860370537732,0.3746958637469586,0.7819781264859724,0.8890920170627666,0.1557128412537917,0.8383889880193729,0.7571354436948625,0.22,3640,4426,411,8066,0.769526407141086,0.540957803629098,0.9035714285714286,0.6592860370537732,0.0,0.8173459244532804,0.9098846273776114,0.0,0.8582985386221295,0.7645748722651644,0.0,3640,4426,0,119,0.8907563025210085,0.31407407407407406,0.0,0.0,0.8907563025210085,0.0,0.0,1.0,0.0,0.0,0.9422222222222222,0,0,119,292,0.1643835616438356,0.09411764705882353,0.0,0.0,0.1643835616438356,0.0,0.0,1.0,0.0,0.0,0.2823529411764706,0,0,292,8185,0.77128894318876,0.6071911512034529,0.9035714285714286,0.6592860370537732,0.8907563025210085,0.8173459244532804,0.9062111801242236,0.1126461211477152,0.8582985386221295,0.7632749149882292,0.2,3640,4426,119,0.10352095214480536,0.3746958637469586,1.039797922286522
simple_pc1_gm_gate_t254,score_dual,0.03,qrs_visibility__le,0.2800807397384144,981,8477,0.7503833903503598,0.6051748105714118,0.9035714285714286,0.6592860370537732,0.3746958637469586,0.7819781264859724,0.8890920170627666,0.1557128412537917,0.8383889880193729,0.7571354436948625,0.22,3640,4426,411,8066,0.769526407141086,0.540957803629098,0.9035714285714286,0.6592860370537732,0.0,0.8173459244532804,0.9098846273776114,0.0,0.8582985386221295,0.7645748722651644,0.0,3640,4426,0,119,0.8907563025210085,0.31407407407407406,0.0,0.0,0.8907563025210085,0.0,0.0,1.0,0.0,0.0,0.9422222222222222,0,0,119,292,0.1643835616438356,0.09411764705882353,0.0,0.0,0.1643835616438356,0.0,0.0,1.0,0.0,0.0,0.2823529411764706,0,0,292,8185,0.77128894318876,0.6071911512034529,0.9035714285714286,0.6592860370537732,0.8907563025210085,0.8173459244532804,0.9062111801242236,0.1126461211477152,0.8582985386221295,0.7632749149882292,0.2,3640,4426,119,0.10352095214480536,0.3746958637469586,1.039797922286522
simple_pc1_gm_gate_t254,score_dual,0.03,qrs_visibility__le,0.3732307518330272,981,8477,0.7503833903503598,0.6051748105714118,0.9035714285714286,0.6592860370537732,0.3746958637469586,0.7819781264859724,0.8890920170627666,0.1557128412537917,0.8383889880193729,0.7571354436948625,0.22,3640,4426,411,8066,0.769526407141086,0.540957803629098,0.9035714285714286,0.6592860370537732,0.0,0.8173459244532804,0.9098846273776114,0.0,0.8582985386221295,0.7645748722651644,0.0,3640,4426,0,119,0.8907563025210085,0.31407407407407406,0.0,0.0,0.8907563025210085,0.0,0.0,1.0,0.0,0.0,0.9422222222222222,0,0,119,292,0.1643835616438356,0.09411764705882353,0.0,0.0,0.1643835616438356,0.0,0.0,1.0,0.0,0.0,0.2823529411764706,0,0,292,8185,0.77128894318876,0.6071911512034529,0.9035714285714286,0.6592860370537732,0.8907563025210085,0.8173459244532804,0.9062111801242236,0.1126461211477152,0.8582985386221295,0.7632749149882292,0.2,3640,4426,119,0.10352095214480536,0.3746958637469586,1.039797922286522
simple_pc1_gm_gate_t254,score_core,0.05,pc3__le,2.1506591515994145,921,8477,0.7582871298808541,0.6119574542466886,0.8989010989010989,0.6784907365567103,0.3722627737226277,0.7848404893259775,0.8887244746966558,0.16469321851453175,0.8380074273274427,0.7695067264573991,0.22835820895522388,3640,4426,411,8066,0.7779568559385073,0.5450062444336601,0.8989010989010989,0.6784907365567103,0.0,0.8196392785571143,0.9105518496058217,0.0,0.8574423480083857,0.7775763852925945,0.0,3640,4426,0,119,0.8151260504201681,0.2993827160493827,0.0,0.0,0.8151260504201681,0.0,0.0,1.0,0.0,0.0,0.8981481481481481,0,0,119,292,0.1917808219178082,0.10727969348659004,0.0,0.0,0.1917808219178082,0.0,0.0,1.0,0.0,0.0,0.3218390804597701,0,0,292,8185,0.7784972510690287,0.6094582653244014,0.8989010989010989,0.6784907365567103,0.8151260504201681,0.8196392785571143,0.9045180722891566,0.1111111111111111,0.8574423480083857,0.7753679318357862,0.19556451612903225,3640,4426,119,0.09620629804116043,0.3722627737226277,1.0396151315344702
simple_pc1_gm_gate_t254,score_all_max,0.02,qrs_visibility__ge,0.018109057926941858,628,8477,0.7507372891353074,0.6160668313869356,0.8953296703296704,0.6676457297785812,0.36496350364963503,0.7183160678862685,0.8943704600484261,0.2358490566037736,0.7971138559373854,0.7645536869340233,0.28653295128939826,3640,4426,411,8066,0.7703942474584676,0.529244728069446,0.8953296703296704,0.6676457297785812,0.0,0.7514410883098916,0.9111933395004626,0.0,0.8170991600852451,0.7706350241230929,0.0,3640,4426,0,119,0.9411764705882353,0.32323232323232326,0.0,0.0,0.9411764705882353,0.0,0.0,1.0,0.0,0.0,0.9696969696969697,0,0,119,292,0.13013698630136986,0.07676767676767678,0.0,0.0,0.13013698630136986,0.0,0.0,1.0,0.0,0.0,0.23030303030303031,0,0,292,8185,0.7728772144166157,0.6331480825700204,0.8953296703296704,0.6676457297785812,0.9411764705882353,0.7514410883098916,0.9092307692307692,0.18729096989966554,0.8170991600852451,0.7699322563835331,0.3124128312412831,3640,4426,119,0.06025291346392264,0.36496350364963503,1.0391715339461203
simple_pc1_gm_gate_t254,score_core,0.01,pc2__le,10.616705266871826,228,8477,0.7663088356729976,0.6600083482788525,0.917032967032967,0.6827835517397198,0.3309002433090024,0.6861253854059609,0.8951421800947867,0.576271186440678,0.7849500293944739,0.7746731607280185,0.42040185471406494,3640,4426,411,8066,0.788494916935284,0.5286602524734182,0.917032967032967,0.6827835517397198,0.0,0.7180038718003872,0.9110642146517938,0.0,0.8054047532874894,0.7805760041327651,0.0,3640,4426,0,119,0.9747899159663865,0.32907801418439714,0.0,0.0,0.9747899159663865,0.0,0.0,1.0,0.0,0.0,0.9872340425531915,0,0,119,292,0.0684931506849315,0.04273504273504273,0.0,0.0,0.0684931506849315,0.0,0.0,1.0,0.0,0.0,0.1282051282051282,0,0,292,8185,0.7912034208918753,0.7594052521221982,0.917032967032967,0.6827835517397198,0.9747899159663865,0.7180038718003872,0.9102409638554216,0.5370370370370371,0.8054047532874894,0.7802736896462691,0.6925373134328359,3640,4426,119,0.012397718819737169,0.3309002433090024,1.038616380828846
simple_pc1_gm_gate_t254,score_dual,0.05,pc3__le,2.1506591515994145,834,8477,0.7618261177303292,0.6135884138154125,0.9063186813186813,0.6807501129688206,0.35523114355231145,0.776235294117647,0.8901033973412112,0.17339667458432304,0.8362484157160963,0.7714761234156958,0.23304070231444532,3640,4426,411,8066,0.7825440119018101,0.5452552855684062,0.9063186813186813,0.6807501129688206,0.0,0.8111630194246373,0.9122010293672419,0.0,0.8561048397560659,0.7796610169491526,0.0,3640,4426,0,119,0.8571428571428571,0.3076923076923077,0.0,0.0,0.8571428571428571,0.0,0.0,1.0,0.0,0.0,0.9230769230769231,0,0,119,292,0.1506849315068493,0.08730158730158731,0.0,0.0,0.1506849315068493,0.0,0.0,1.0,0.0,0.0,0.2619047619047619,0,0,292,8185,0.7836285888821014,0.618839769243088,0.9063186813186813,0.6807501129688206,0.8571428571428571,0.8111630194246373,0.9075301204819277,0.12781954887218044,0.8561048397560659,0.7779499096307771,0.22246455834242093,3640,4426,119,0.0862881229853707,0.35523114355231145,1.0373311862710939
simple_pc1_gm_gate_t254,score_core,0.03,pc1__ge,-6.099036591134506,963,8477,0.7463725374542881,0.6037361560757465,0.8983516483516484,0.6552191595119747,0.3819951338199513,0.771772480528676,0.8871214438666258,0.16168898043254376,0.8302653294401422,0.7537361923326835,0.2272069464544139,3640,4426,411,8066,0.7649392511777833,0.5369122246093401,0.8983516483516484,0.6552191595119747,0.0,0.806014296278038,0.9076682316118936,0.0,0.8496816941665584,0.7610549796614617,0.0,3640,4426,0,119,0.8571428571428571,0.3076923076923077,0.0,0.0,0.8571428571428571,0.0,0.0,1.0,0.0,0.0,0.9230769230769231,0,0,119,292,0.18835616438356165,0.10566762728146013,0.0,0.0,0.18835616438356165,0.0,0.0,1.0,0.0,0.0,0.3170028818443804,0,0,292,8185,0.7662797800855223,0.602048077577437,0.8983516483516484,0.6552191595119747,0.8571428571428571,0.806014296278038,0.9028642590286425,0.11135371179039301,0.8496816941665584,0.7593610892903901,0.19710144927536233,3640,4426,119,0.10091743119266056,0.3819951338199513,1.036895687520234
simple_pc1_gm_gate_t254,score_core,0.02,pc3__ge,-1.610530736647411,685,8477,0.7482599976406747,0.6119338969354596,0.9107142857142857,0.64979665612291,0.36982968369829683,0.728891820580475,0.8887515451174289,0.21933621933621933,0.8097215437225208,0.7507178282432785,0.2753623188405797,3640,4426,411,8066,0.767542772129928,0.5288376685743653,0.9107142857142857,0.64979665612291,0.0,0.7613688562241617,0.9069694102806686,0.0,0.8293720290217663,0.7571409767013295,0.0,3640,4426,0,119,0.907563025210084,0.3171806167400881,0.0,0.0,0.907563025210084,0.0,0.0,1.0,0.0,0.0,0.9515418502202643,0,0,119,292,0.1506849315068493,0.08730158730158731,0.0,0.0,0.1506849315068493,0.0,0.0,1.0,0.0,0.0,0.2619047619047619,0,0,292,8185,0.7695784972510691,0.6222227653696809,0.9107142857142857,0.64979665612291,0.907563025210084,0.7613688562241617,0.9038340666247643,0.16640986132511557,0.8293720290217663,0.7560462670872765,0.28125,3640,4426,119,0.06707165881477808,0.36982968369829683,1.0364375804426185
simple_pc1_gm_gate_t254,score_dual,0.02,pc1__ge,-6.099036591134506,921,8477,0.7476701663324289,0.6034980272398616,0.9019230769230769,0.6558969724356077,0.36982968369829683,0.7663398692810458,0.8893995098039216,0.16361679224973089,0.8286219081272085,0.7550065019505852,0.22686567164179106,3640,4426,411,8066,0.7669228861889412,0.536927342322241,0.9019230769230769,0.6558969724356077,0.0,0.8011224987798926,0.909746161078032,0.0,0.8485396743344533,0.7622423526322699,0.0,3640,4426,0,119,0.8991596638655462,0.31563421828908556,0.0,0.0,0.8991596638655462,0.0,0.0,1.0,0.0,0.0,0.9469026548672567,0,0,119,292,0.1541095890410959,0.08902077151335312,0.0,0.0,0.1541095890410959,0.0,0.0,1.0,0.0,0.0,0.26706231454005935,0,0,292,8185,0.7688454489920586,0.6076476605497892,0.9019230769230769,0.6558969724356077,0.8991596638655462,0.8011224987798926,0.9063378083047143,0.12104072398190045,0.8485396743344533,0.7610433870756325,0.21335992023928216,3640,4426,119,0.0963302752293578,0.36982968369829683,1.0351009435628291
