base_mode,score_col,score_threshold,gate,gate_threshold,changed_to_bad,test_all_n,test_all_acc,test_all_macro_f1,test_all_good_recall,test_all_medium_recall,test_all_bad_recall,test_all_good_precision,test_all_medium_precision,test_all_bad_precision,test_all_good_f1,test_all_medium_f1,test_all_bad_f1,test_all_support_good,test_all_support_medium,test_all_support_bad,gm_only_n,gm_only_acc,gm_only_macro_f1,gm_only_good_recall,gm_only_medium_recall,gm_only_bad_recall,gm_only_good_precision,gm_only_medium_precision,gm_only_bad_precision,gm_only_good_f1,gm_only_medium_f1,gm_only_bad_f1,gm_only_support_good,gm_only_support_medium,gm_only_support_bad,bad_core_n,bad_core_acc,bad_core_macro_f1,bad_core_good_recall,bad_core_medium_recall,bad_core_bad_recall,bad_core_good_precision,bad_core_medium_precision,bad_core_bad_precision,bad_core_good_f1,bad_core_medium_f1,bad_core_bad_f1,bad_core_support_good,bad_core_support_medium,bad_core_support_bad,bad_outlier_n,bad_outlier_acc,bad_outlier_macro_f1,bad_outlier_good_recall,bad_outlier_medium_recall,bad_outlier_bad_recall,bad_outlier_good_precision,bad_outlier_medium_precision,bad_outlier_bad_precision,bad_outlier_good_f1,bad_outlier_medium_f1,bad_outlier_bad_f1,bad_outlier_support_good,bad_outlier_support_medium,bad_outlier_support_bad,drop_bad_outlier_n,drop_bad_outlier_acc,drop_bad_outlier_macro_f1,drop_bad_outlier_good_recall,drop_bad_outlier_medium_recall,drop_bad_outlier_bad_recall,drop_bad_outlier_good_precision,drop_bad_outlier_medium_precision,drop_bad_outlier_bad_precision,drop_bad_outlier_good_f1,drop_bad_outlier_medium_f1,drop_bad_outlier_bad_f1,drop_bad_outlier_support_good,drop_bad_outlier_support_medium,drop_bad_outlier_support_bad,gm_false_bad_rate,bad_caught_rate,balanced_score
simple_pc1_gm_gate_t254,score_all_max,0.01,pc3__le,2.1506591515994145,783,8477,0.7517989854901498,0.6257532708850736,0.8854395604395604,0.6606416629010393,0.5498783454987834,0.8251408090117768,0.8985863552550707,0.1716021260440395,0.8542274052478134,0.7614583333333333,0.26157407407407407,3640,4426,411,8066,0.7620877758492437,0.5454463009540437,0.8854395604395604,0.6606416629010393,0.0,0.8560424966799469,0.9109034267912772,0.0,0.8704929101958137,0.7658459926663175,0.0,3640,4426,0,119,0.9915966386554622,0.33192686357243323,0.0,0.0,0.9915966386554622,0.0,0.0,1.0,0.0,0.0,0.9957805907172996,0,0,119,292,0.3698630136986301,0.18000000000000002,0.0,0.0,0.3698630136986301,0.0,0.0,1.0,0.0,0.0,0.54,0,0,292,8185,0.7654245571166769,0.6046498217453975,0.8854395604395604,0.6606416629010393,0.9915966386554622,0.8560424966799469,0.9106197446278418,0.09760132340777503,0.8704929101958137,0.7657457116668849,0.17771084337349397,3640,4426,119,0.13525911232333251,0.5498783454987834,1.1484753542678379
simple_pc1_gm_gate_t254,score_all_max,0.01,pc3__le,3.281193089810729,912,8477,0.7374071015689513,0.613557234472519,0.8854395604395604,0.6328513330320832,0.5523114355231143,0.8261984106639323,0.8948881789137381,0.156984785615491,0.854793793926535,0.7413975648491266,0.24448034464189553,3640,4426,411,8066,0.7468385817009671,0.5389073234021989,0.8854395604395604,0.6328513330320832,0.0,0.8571808510638298,0.9073534175574992,0.0,0.8710810810810811,0.7456408891255157,0.0,3640,4426,0,119,0.9915966386554622,0.33192686357243323,0.0,0.0,0.9915966386554622,0.0,0.0,1.0,0.0,0.0,0.9957805907172996,0,0,119,292,0.3732876712328767,0.18121363258520365,0.0,0.0,0.3732876712328767,0.0,0.0,1.0,0.0,0.0,0.543640897755611,0,0,292,8185,0.7503970678069639,0.5929035495817503,0.8854395604395604,0.6328513330320832,0.9915966386554622,0.8571808510638298,0.907059585492228,0.08825729244577413,0.8710810810810811,0.7455416555762576,0.1620879120879121,3640,4426,119,0.1511281924125961,0.5523114355231143,1.1354487504852921
simple_pc1_gm_gate_t254,score_all_max,0.01,qrs_visibility__le,0.2800807397384144,923,8477,0.7361094726908104,0.6124555167550915,0.885989010989011,0.6299141436963398,0.5523114355231143,0.8262874711760184,0.8944497914661533,0.15579958819492107,0.8550974413363384,0.7392284237040965,0.2430406852248394,3640,4426,411,8066,0.745474832630796,0.5382842595094419,0.885989010989011,0.6299141436963398,0.0,0.8572567783094099,0.9069616135328562,0.0,0.871386111861659,0.7434666666666667,0.0,3640,4426,0,119,0.9915966386554622,0.33192686357243323,0.0,0.0,0.9915966386554622,0.0,0.0,1.0,0.0,0.0,0.9957805907172996,0,0,119,292,0.3732876712328767,0.18121363258520365,0.0,0.0,0.3732876712328767,0.0,0.0,1.0,0.0,0.0,0.543640897755611,0,0,292,8185,0.7490531459987783,0.5918753972751828,0.885989010989011,0.6299141436963398,0.9915966386554622,0.8572567783094099,0.9066666666666666,0.08753709198813056,0.871386111861659,0.743367550993201,0.1608725289706885,3640,4426,119,0.15249194148276718,0.5523114355231143,1.1341511216071514
simple_pc1_gm_gate_t254,score_all_max,0.01,qrs_visibility__le,0.3732307518330272,923,8477,0.7361094726908104,0.6124555167550915,0.885989010989011,0.6299141436963398,0.5523114355231143,0.8262874711760184,0.8944497914661533,0.15579958819492107,0.8550974413363384,0.7392284237040965,0.2430406852248394,3640,4426,411,8066,0.745474832630796,0.5382842595094419,0.885989010989011,0.6299141436963398,0.0,0.8572567783094099,0.9069616135328562,0.0,0.871386111861659,0.7434666666666667,0.0,3640,4426,0,119,0.9915966386554622,0.33192686357243323,0.0,0.0,0.9915966386554622,0.0,0.0,1.0,0.0,0.0,0.9957805907172996,0,0,119,292,0.3732876712328767,0.18121363258520365,0.0,0.0,0.3732876712328767,0.0,0.0,1.0,0.0,0.0,0.543640897755611,0,0,292,8185,0.7490531459987783,0.5918753972751828,0.885989010989011,0.6299141436963398,0.9915966386554622,0.8572567783094099,0.9066666666666666,0.08753709198813056,0.871386111861659,0.743367550993201,0.1608725289706885,3640,4426,119,0.15249194148276718,0.5523114355231143,1.1341511216071514
simple_pc1_gm_gate_t254,score_all_max,0.01,none,,926,8477,0.7357555739058629,0.6121686798878696,0.8854395604395604,0.6296882060551288,0.5523114355231143,0.8261984106639323,0.8944159178433889,0.15547945205479452,0.854793793926535,0.7390612569610183,0.2426509887760556,3640,4426,411,8066,0.7451029010662038,0.5381267292095403,0.8854395604395604,0.6296882060551288,0.0,0.8571808510638298,0.9069313374552554,0.0,0.8710810810810811,0.7432991065475397,0.0,3640,4426,0,119,0.9915966386554622,0.33192686357243323,0.0,0.0,0.9915966386554622,0.0,0.0,1.0,0.0,0.0,0.9957805907172996,0,0,119,292,0.3732876712328767,0.18121363258520365,0.0,0.0,0.3732876712328767,0.0,0.0,1.0,0.0,0.0,0.543640897755611,0,0,292,8185,0.748686621869273,0.5916084329227186,0.8854395604395604,0.6296882060551288,0.9915966386554622,0.8571808510638298,0.9066363044892648,0.08734270910436713,0.8710810810810811,0.7432,0.16054421768707483,3640,4426,119,0.1528638730473593,0.5523114355231143,1.1337972228222037
simple_pc1_gm_gate_t254,score_all_max,0.01,pc2__ge,-1.0634046292314407,919,8477,0.7356376076442137,0.6110783104284966,0.8854395604395604,0.6303660189787619,0.5425790754257908,0.8261984106639323,0.8933717579250721,0.1534755677907777,0.854793793926535,0.73917075109286,0.23927038626609443,3640,4426,411,8066,0.745474832630796,0.538294244657881,0.8854395604395604,0.6303660189787619,0.0,0.8571808510638298,0.9070221066319896,0.0,0.8710810810810811,0.743801652892562,0.0,3640,4426,0,119,0.957983193277311,0.3261802575107296,0.0,0.0,0.957983193277311,0.0,0.0,1.0,0.0,0.0,0.9785407725321889,0,0,119,292,0.3732876712328767,0.18121363258520365,0.0,0.0,0.3732876712328767,0.0,0.0,1.0,0.0,0.0,0.543640897755611,0,0,292,8185,0.748564447159438,0.5900771614758561,0.8854395604395604,0.6303660189787619,0.957983193277311,0.8571808510638298,0.9055501460564752,0.08482142857142858,0.8710810810810811,0.7433062475023312,0.15584415584415584,3640,4426,119,0.15249194148276718,0.5425790754257908,1.1252309137197687
simple_pc1_gm_gate_t254,score_all_max,0.02,pc3__le,2.1506591515994145,673,8477,0.7543942432464316,0.6231351449730248,0.8903846153846153,0.6660641662901039,0.5012165450121655,0.8141170560160763,0.8963210702341137,0.17067108533554268,0.8505445479595853,0.7642255346727155,0.2546353522867738,3640,4426,411,8066,0.7672948177535334,0.5457885574944726,0.8903846153846153,0.6660641662901039,0.0,0.8464351005484461,0.9110012360939431,0.0,0.8678537956888472,0.7695118767945706,0.0,3640,4426,0,119,0.9747899159663865,0.32907801418439714,0.0,0.0,0.9747899159663865,0.0,0.0,1.0,0.0,0.0,0.9872340425531915,0,0,119,292,0.3082191780821918,0.15706806282722513,0.0,0.0,0.3082191780821918,0.0,0.0,1.0,0.0,0.0,0.4712041884816754,0,0,292,8185,0.7703115455100794,0.608255586346279,0.8903846153846153,0.6660641662901039,0.9747899159663865,0.8464351005484461,0.9101574560049398,0.10384959713518353,0.8678537956888472,0.7692106979778213,0.18770226537216828,3640,4426,119,0.12410116538556906,0.5012165450121655,1.1222713981079762
simple_pc1_gm_gate_t254,score_core,0.01,pc3__le,2.1506591515994145,646,8477,0.7530966143682907,0.6226139530659002,0.8895604395604395,0.6642566651604157,0.5012165450121655,0.8074812967581048,0.8944326133252206,0.17457627118644067,0.8465359477124182,0.7623492804356281,0.25895663104965433,3640,4426,411,8066,0.7659310686833622,0.5437786711662141,0.8895604395604395,0.6642566651604157,0.0,0.8395125745397978,0.9088098918083463,0.0,0.8638121915432839,0.7675238219553583,0.0,3640,4426,0,119,0.9831932773109243,0.3305084745762712,0.0,0.0,0.9831932773109243,0.0,0.0,1.0,0.0,0.0,0.9915254237288136,0,0,119,292,0.3047945205479452,0.1557305336832896,0.0,0.0,0.3047945205479452,0.0,0.0,1.0,0.0,0.0,0.4671916010498688,0,0,292,8185,0.7690897984117288,0.6081747079466817,0.8895604395604395,0.6642566651604157,0.9831932773109243,0.8395125745397978,0.9082483781278962,0.10724106324472961,0.8638121915432839,0.7673235025446953,0.1933884297520661,3640,4426,119,0.12075378130424003,0.5012165450121655,1.121720574801379
simple_pc1_gm_gate_t254,score_all_max,0.01,qrs_visibility__le,0.1065758014715877,863,8477,0.7390586292320397,0.6119475204099559,0.8895604395604395,0.6353366470854044,0.5231143552311436,0.8264420622766717,0.8893105629348513,0.15390121689334288,0.8568404339772426,0.7411702688455456,0.23783185840707965,3640,4426,411,8066,0.7500619885940987,0.5399036682382814,0.8895604395604395,0.6353366470854044,0.0,0.8572941487953403,0.9050531058899259,0.0,0.8731292975596603,0.7465817071551839,0.0,3640,4426,0,119,0.957983193277311,0.3261802575107296,0.0,0.0,0.957983193277311,0.0,0.0,1.0,0.0,0.0,0.9785407725321889,0,0,119,292,0.3458904109589041,0.17133163698049195,0.0,0.0,0.3458904109589041,0.0,0.0,1.0,0.0,0.0,0.5139949109414759,0,0,292,8185,0.7530849114233353,0.5934488449002222,0.8895604395604395,0.6353366470854044,0.957983193277311,0.8572941487953403,0.903598971722365,0.08796296296296297,0.8731292975596603,0.7460864950915362,0.16113074204946998,3640,4426,119,0.14654103644929334,0.5231143552311436,1.117729694198372
simple_pc1_gm_gate_t254,score_all_max,0.01,pc1__ge,-6.099036591134506,886,8477,0.7344579450277221,0.6081510084989109,0.8857142857142857,0.6296882060551288,0.5231143552311436,0.818066480588683,0.8944159178433889,0.15140845070422534,0.8505474211845403,0.7390612569610183,0.2348443473511742,3640,4426,411,8066,0.7452268782544011,0.5371219603049329,0.8857142857142857,0.6296882060551288,0.0,0.8511087645195353,0.9069313374552554,0.0,0.868066774367259,0.7432991065475397,0.0,3640,4426,0,119,0.9915966386554622,0.33192686357243323,0.0,0.0,0.9915966386554622,0.0,0.0,1.0,0.0,0.0,0.9957805907172996,0,0,119,292,0.3321917808219178,0.1662382176520994,0.0,0.0,0.3321917808219178,0.0,0.0,1.0,0.0,0.0,0.4987146529562982,0,0,292,8185,0.7488087965791081,0.5916427851681894,0.8857142857142857,0.6296882060551288,0.9915966386554622,0.8511087645195353,0.9066363044892648,0.08919123204837491,0.868066774367259,0.7432,0.1636615811373093,3640,4426,119,0.1493925117778329,0.5231143552311436,1.1161162322802294
simple_pc1_gm_gate_t254,score_all_max,0.02,pc3__le,3.281193089810729,776,8477,0.7430694821281114,0.6134164798695966,0.8903846153846153,0.6441482150926344,0.5036496350364964,0.8151408450704225,0.8934503290504544,0.15801526717557252,0.8511029411764706,0.7485886832086123,0.24055781522370714,3640,4426,411,8066,0.7552690304983883,0.5407231527074985,0.8903846153846153,0.6441482150926344,0.0,0.8475418410041841,0.9082510353615801,0.0,0.8684351554126474,0.753734302709848,0.0,3640,4426,0,119,0.9747899159663865,0.32907801418439714,0.0,0.0,0.9747899159663865,0.0,0.0,1.0,0.0,0.0,0.9872340425531915,0,0,119,292,0.3116438356164384,0.15839860748476936,0.0,0.0,0.3116438356164384,0.0,0.0,1.0,0.0,0.0,0.4751958224543081,0,0,292,8185,0.7584605986560782,0.598421265816273,0.8903846153846153,0.6441482150926344,0.9747899159663865,0.8475418410041841,0.9073838319541693,0.0951599671862182,0.8684351554126474,0.7534355179704016,0.17339312406576982,3640,4426,119,0.13674683858170097,0.5036496350364964,1.112311917128309
simple_pc1_gm_gate_t254,score_core,0.01,pc3__le,3.281193089810729,746,8477,0.7420077857732689,0.6129392064260436,0.8895604395604395,0.6427925892453683,0.5036496350364964,0.8082875686470294,0.89157004073958,0.16171875,0.8469788124509547,0.7470132598135749,0.24482554701360143,3640,4426,411,8066,0.7541532358046119,0.5387739868045198,0.8895604395604395,0.6427925892453683,0.0,0.840384116273034,0.9060509554140127,0.0,0.8642733217669826,0.7520486386465768,0.0,3640,4426,0,119,0.9831932773109243,0.3305084745762712,0.0,0.0,0.9831932773109243,0.0,0.0,1.0,0.0,0.0,0.9915254237288136,0,0,119,292,0.3082191780821918,0.15706806282722513,0.0,0.0,0.3082191780821918,0.0,0.0,1.0,0.0,0.0,0.4712041884816754,0,0,292,8185,0.7574832009773976,0.598295210038423,0.8895604395604395,0.6427925892453683,0.9831932773109243,0.840384116273034,0.9054742202418842,0.09831932773109243,0.8642733217669826,0.7518498942917548,0.1787624140565317,3640,4426,119,0.13302752293577982,0.5036496350364964,1.11199702634501
simple_pc1_gm_gate_t254,score_all_max,0.02,qrs_visibility__le,0.2800807397384144,785,8477,0.7420077857732689,0.6125012458027069,0.8906593406593407,0.6418888386805242,0.5036496350364964,0.8151873271310033,0.8931153725243635,0.15693707354056102,0.851253774451884,0.7469436045747337,0.23930635838150288,3640,4426,411,8066,0.7541532358046119,0.5402238167407901,0.8906593406593407,0.6418888386805242,0.0,0.8475816993464053,0.9079578139980825,0.0,0.8685867381111856,0.7520847121111847,0.0,3640,4426,0,119,0.9747899159663865,0.32907801418439714,0.0,0.0,0.9747899159663865,0.0,0.0,1.0,0.0,0.0,0.9872340425531915,0,0,119,292,0.3116438356164384,0.15839860748476936,0.0,0.0,0.3116438356164384,0.0,0.0,1.0,0.0,0.0,0.4751958224543081,0,0,292,8185,0.7573610262675626,0.5975358401100916,0.8906593406593407,0.6418888386805242,0.9747899159663865,0.8475816993464053,0.907088122605364,0.09446254071661238,0.8685867381111856,0.7517861868219106,0.17223459539717892,3640,4426,119,0.13786263327547732,0.5036496350364964,1.1112502207734665
simple_pc1_gm_gate_t254,score_all_max,0.02,qrs_visibility__le,0.3732307518330272,785,8477,0.7420077857732689,0.6125012458027069,0.8906593406593407,0.6418888386805242,0.5036496350364964,0.8151873271310033,0.8931153725243635,0.15693707354056102,0.851253774451884,0.7469436045747337,0.23930635838150288,3640,4426,411,8066,0.7541532358046119,0.5402238167407901,0.8906593406593407,0.6418888386805242,0.0,0.8475816993464053,0.9079578139980825,0.0,0.8685867381111856,0.7520847121111847,0.0,3640,4426,0,119,0.9747899159663865,0.32907801418439714,0.0,0.0,0.9747899159663865,0.0,0.0,1.0,0.0,0.0,0.9872340425531915,0,0,119,292,0.3116438356164384,0.15839860748476936,0.0,0.0,0.3116438356164384,0.0,0.0,1.0,0.0,0.0,0.4751958224543081,0,0,292,8185,0.7573610262675626,0.5975358401100916,0.8906593406593407,0.6418888386805242,0.9747899159663865,0.8475816993464053,0.907088122605364,0.09446254071661238,0.8685867381111856,0.7517861868219106,0.17223459539717892,3640,4426,119,0.13786263327547732,0.5036496350364964,1.1112502207734665
simple_pc1_gm_gate_t254,score_all_max,0.02,none,,786,8477,0.7418898195116197,0.6124048855565828,0.8903846153846153,0.6418888386805242,0.5036496350364964,0.8151408450704225,0.8931153725243635,0.15681818181818183,0.8511029411764706,0.7469436045747337,0.2391681109185442,3640,4426,411,8066,0.7540292586164146,0.5401732891746107,0.8903846153846153,0.6418888386805242,0.0,0.8475418410041841,0.9079578139980825,0.0,0.8684351554126474,0.7520847121111847,0.0,3640,4426,0,119,0.9747899159663865,0.32907801418439714,0.0,0.0,0.9747899159663865,0.0,0.0,1.0,0.0,0.0,0.9872340425531915,0,0,119,292,0.3116438356164384,0.15839860748476936,0.0,0.0,0.3116438356164384,0.0,0.0,1.0,0.0,0.0,0.4751958224543081,0,0,292,8185,0.7572388515577275,0.5974427223867913,0.8903846153846153,0.6418888386805242,0.9747899159663865,0.8475418410041841,0.907088122605364,0.09438567941415785,0.8684351554126474,0.7517861868219106,0.17210682492581603,3640,4426,119,0.1379866104636747,0.5036496350364964,1.1111322545118172
simple_pc1_gm_gate_t254,score_all_max,0.01,pc1__le,-0.7734152380448813,825,8477,0.7438952459596555,0.6149164091548511,0.8854395604395604,0.648892905558066,0.51338199513382,0.8261984106639323,0.8927572272303388,0.15526122148638705,0.854793793926535,0.751537354441973,0.2384180790960452,3640,4426,411,8066,0.7556409620629804,0.5428216824419355,0.8854395604395604,0.648892905558066,0.0,0.8571808510638298,0.9094363521215959,0.0,0.8710810810810811,0.7573839662447257,0.0,3640,4426,0,119,0.8907563025210085,0.31407407407407406,0.0,0.0,0.8907563025210085,0.0,0.0,1.0,0.0,0.0,0.9422222222222222,0,0,119,292,0.3595890410958904,0.17632241813602015,0.0,0.0,0.3595890410958904,0.0,0.0,1.0,0.0,0.0,0.5289672544080605,0,0,292,8185,0.7576053756872327,0.5938584732831887,0.8854395604395604,0.648892905558066,0.8907563025210085,0.8571808510638298,0.9057079785556607,0.08452950558213716,0.8710810810810811,0.7560879294458339,0.15440640932265112,3640,4426,119,0.1423258120505827,0.51338199513382,1.1111307457990274
simple_pc1_gm_gate_t254,score_core,0.01,qrs_visibility__le,0.2800807397384144,754,8477,0.7410640556800755,0.6121063978551394,0.8901098901098901,0.640533212833258,0.5036496350364964,0.8083832335329342,0.8912291732159698,0.16071428571428573,0.8472803347280334,0.7453661101616932,0.24367274867569158,3640,4426,411,8066,0.7531614182990329,0.5383244732415576,0.8901098901098901,0.640533212833258,0.0,0.8404669260700389,0.9057507987220448,0.0,0.8645763842561708,0.7503970354685019,0.0,3640,4426,0,119,0.9831932773109243,0.3305084745762712,0.0,0.0,0.9831932773109243,0.0,0.0,1.0,0.0,0.0,0.9915254237288136,0,0,119,292,0.3082191780821918,0.15706806282722513,0.0,0.0,0.3082191780821918,0.0,0.0,1.0,0.0,0.0,0.4712041884816754,0,0,292,8185,0.7565058032987172,0.5974837956813422,0.8901098901098901,0.640533212833258,0.9831932773109243,0.8404669260700389,0.9051724137931034,0.09766277128547579,0.8645763842561708,0.7501984652024345,0.1776765375854214,3640,4426,119,0.1340193404413588,0.5036496350364964,1.1110532962518167
simple_pc1_gm_gate_t254,score_core,0.01,qrs_visibility__le,0.3732307518330272,754,8477,0.7410640556800755,0.6121063978551394,0.8901098901098901,0.640533212833258,0.5036496350364964,0.8083832335329342,0.8912291732159698,0.16071428571428573,0.8472803347280334,0.7453661101616932,0.24367274867569158,3640,4426,411,8066,0.7531614182990329,0.5383244732415576,0.8901098901098901,0.640533212833258,0.0,0.8404669260700389,0.9057507987220448,0.0,0.8645763842561708,0.7503970354685019,0.0,3640,4426,0,119,0.9831932773109243,0.3305084745762712,0.0,0.0,0.9831932773109243,0.0,0.0,1.0,0.0,0.0,0.9915254237288136,0,0,119,292,0.3082191780821918,0.15706806282722513,0.0,0.0,0.3082191780821918,0.0,0.0,1.0,0.0,0.0,0.4712041884816754,0,0,292,8185,0.7565058032987172,0.5974837956813422,0.8901098901098901,0.640533212833258,0.9831932773109243,0.8404669260700389,0.9051724137931034,0.09766277128547579,0.8645763842561708,0.7501984652024345,0.1776765375854214,3640,4426,119,0.1340193404413588,0.5036496350364964,1.1110532962518167
simple_pc1_gm_gate_t254,score_core,0.01,none,,756,8477,0.7408281231567772,0.611910388666297,0.8895604395604395,0.640533212833258,0.5036496350364964,0.8082875686470294,0.8912291732159698,0.16046511627906976,0.8469788124509547,0.7453661101616932,0.24338624338624337,3640,4426,411,8066,0.7529134639226382,0.5382234524118282,0.8895604395604395,0.640533212833258,0.0,0.840384116273034,0.9057507987220448,0.0,0.8642733217669826,0.7503970354685019,0.0,3640,4426,0,119,0.9831932773109243,0.3305084745762712,0.0,0.0,0.9831932773109243,0.0,0.0,1.0,0.0,0.0,0.9915254237288136,0,0,119,292,0.3082191780821918,0.15706806282722513,0.0,0.0,0.3082191780821918,0.0,0.0,1.0,0.0,0.0,0.4712041884816754,0,0,292,8185,0.7562614538790471,0.5972929711934954,0.8895604395604395,0.640533212833258,0.9831932773109243,0.840384116273034,0.9051724137931034,0.0975,0.8642733217669826,0.7501984652024345,0.177407126611069,3640,4426,119,0.13426729481775354,0.5036496350364964,1.1108173637285184
simple_pc1_gm_gate_t254,score_all_max,0.01,pc3__ge,-2.4479177605053817,822,8477,0.7364633714757579,0.6083548259482406,0.8920329670329671,0.6296882060551288,0.5085158150851582,0.8107365792759051,0.8944159178433889,0.1541297935103245,0.8494440810987574,0.7390612569610183,0.23655913978494625,3640,4426,411,8066,0.7480783535829407,0.5369283601217777,0.8920329670329671,0.6296882060551288,0.0,0.844253770150806,0.9069313374552554,0.0,0.8674859738177932,0.7432991065475397,0.0,3640,4426,0,119,0.9915966386554622,0.33192686357243323,0.0,0.0,0.9915966386554622,0.0,0.0,1.0,0.0,0.0,0.9957805907172996,0,0,119,292,0.3116438356164384,0.15839860748476936,0.0,0.0,0.3116438356164384,0.0,0.0,1.0,0.0,0.0,0.4751958224543081,0,0,292,8185,0.7516188149053146,0.5937354016772219,0.8920329670329671,0.6296882060551288,0.9915966386554622,0.844253770150806,0.9066363044892648,0.0932806324110672,0.8674859738177932,0.7432,0.17052023121387283,3640,4426,119,0.14220183486238533,0.5085158150851582,1.1099299778963485
simple_pc1_gm_gate_t254,score_all_max,0.01,pc1__le,0.15713262094765446,880,8477,0.7381148991388463,0.6108644010772609,0.8854395604395604,0.6371441482150927,0.5206812652068127,0.8261984106639323,0.8918406072106262,0.15134370579915135,0.854793793926535,0.7432788613600422,0.2345205479452055,3640,4426,411,8066,0.749194148276717,0.5399620597761862,0.8854395604395604,0.6371441482150927,0.0,0.8571808510638298,0.9079201545396007,0.0,0.8710810810810811,0.7488050982474774,0.0,3640,4426,0,119,0.8907563025210085,0.31407407407407406,0.0,0.0,0.8907563025210085,0.0,0.0,1.0,0.0,0.0,0.9422222222222222,0,0,119,292,0.3698630136986301,0.18000000000000002,0.0,0.0,0.3698630136986301,0.0,0.0,1.0,0.0,0.0,0.54,0,0,292,8185,0.7512522907758095,0.5891226404808072,0.8854395604395604,0.6371441482150927,0.8907563025210085,0.8571808510638298,0.9041359410067329,0.08116385911179173,0.8710810810810811,0.7475149105367793,0.14877192982456142,3640,4426,119,0.14877262583684603,0.5206812652068127,1.1094462393941766
simple_pc1_gm_gate_t254,score_all_max,0.01,pc1__ge,-5.359154835604749,820,8477,0.7352837088592663,0.6074983215954093,0.8892857142857142,0.6296882060551288,0.5085158150851582,0.8078362864986274,0.8944159178433889,0.15435745937961595,0.8466065123577874,0.7390612569610183,0.2368271954674221,3640,4426,411,8066,0.7468385817009671,0.5359608132936243,0.8892857142857142,0.6296882060551288,0.0,0.8412162162162162,0.9069313374552554,0.0,0.8645833333333334,0.7432991065475397,0.0,3640,4426,0,119,0.9915966386554622,0.33192686357243323,0.0,0.0,0.9915966386554622,0.0,0.0,1.0,0.0,0.0,0.9957805907172996,0,0,119,292,0.3116438356164384,0.15839860748476936,0.0,0.0,0.3116438356164384,0.0,0.0,1.0,0.0,0.0,0.4751958224543081,0,0,292,8185,0.7503970678069639,0.5928501125582891,0.8892857142857142,0.6296882060551288,0.9915966386554622,0.8412162162162162,0.9066363044892648,0.0934283452098179,0.8645833333333334,0.7432,0.170767004341534,3640,4426,119,0.14195388048599059,0.5085158150851582,1.1087503152798568
simple_pc1_gm_gate_t254,score_all_max,0.01,pc3__le,0.0402656504923967,514,8477,0.765247139318155,0.6296904641857205,0.8873626373626373,0.6924988703117939,0.46715328467153283,0.8062905641537693,0.8954133800759567,0.183206106870229,0.8448862150143867,0.7809912090712192,0.26319396847155585,3640,4426,411,8066,0.7804363997024547,0.5498899574677335,0.8873626373626373,0.6924988703117939,0.0,0.8370044052863436,0.9146523425843032,0.0,0.8614481930924123,0.7882216793107882,0.0,3640,4426,0,119,0.907563025210084,0.3171806167400881,0.0,0.0,0.907563025210084,0.0,0.0,1.0,0.0,0.0,0.9515418502202643,0,0,119,292,0.2876712328767123,0.14893617021276595,0.0,0.0,0.2876712328767123,0.0,0.0,1.0,0.0,0.0,0.44680851063829785,0,0,292,8185,0.7822846670739158,0.616000849442016,0.8873626373626373,0.6924988703117939,0.907563025210084,0.8370044052863436,0.9116597263533611,0.11203319502074689,0.8614481930924123,0.7871083718541345,0.1994459833795014,3640,4426,119,0.10612447309695017,0.46715328467153283,1.108035927666211
simple_pc1_gm_gate_t254,score_all_max,0.01,pc2__ge,1.9185090159687288,911,8477,0.7346938775510204,0.6082876925715245,0.8854395604395604,0.6303660189787619,0.5231143552311436,0.8261984106639323,0.8910891089108911,0.14878892733564014,0.854793793926535,0.7383882493052799,0.23168103448275862,3640,4426,411,8066,0.745474832630796,0.538294244657881,0.8854395604395604,0.6303660189787619,0.0,0.8571808510638298,0.9070221066319896,0.0,0.8710810810810811,0.743801652892562,0.0,3640,4426,0,119,0.8907563025210085,0.31407407407407406,0.0,0.0,0.8907563025210085,0.0,0.0,1.0,0.0,0.0,0.9422222222222222,0,0,119,292,0.3732876712328767,0.18121363258520365,0.0,0.0,0.3732876712328767,0.0,0.0,1.0,0.0,0.0,0.543640897755611,0,0,292,8185,0.7475870494807575,0.586433506164971,0.8854395604395604,0.6303660189787619,0.8907563025210085,0.8571808510638298,0.9032049206863062,0.07934131736526946,0.8710810810810811,0.7425149700598802,0.1457044673539519,3640,4426,119,0.15249194148276718,0.5231143552311436,1.1073904979450035
simple_pc1_gm_gate_t254,score_all_max,0.03,pc3__le,2.1506591515994145,608,8477,0.7562817034328182,0.6212968085911769,0.8936813186813187,0.6699051061906913,0.46958637469586373,0.8081987577639752,0.8957703927492447,0.1690017513134851,0.8487932159165036,0.766546018614271,0.24855119124275596,3640,4426,411,8066,0.7708901562112571,0.5464184118019458,0.8936813186813187,0.6699051061906913,0.0,0.842091638622832,0.9111862323294407,0.0,0.867119818739171,0.7721354166666666,0.0,3640,4426,0,119,0.9663865546218487,0.3276353276353276,0.0,0.0,0.9663865546218487,0.0,0.0,1.0,0.0,0.0,0.9829059829059829,0,0,119,292,0.2671232876712329,0.14054054054054055,0.0,0.0,0.2671232876712329,0.0,0.0,1.0,0.0,0.0,0.42162162162162165,0,0,292,8185,0.7737324373854612,0.6110914181802752,0.8936813186813187,0.6699051061906913,0.9663865546218487,0.842091638622832,0.9100675260896255,0.1080827067669173,0.867119818739171,0.7717334721499219,0.1944209636517329,3640,4426,119,0.11765435159930573,0.46958637469586373,1.1056634109203327
simple_pc1_gm_gate_t254,score_all_max,0.01,pc2__ge,5.370042063114319,886,8477,0.7369352365223546,0.6093726786035842,0.8854395604395604,0.6353366470854044,0.5158150851581509,0.8261984106639323,0.8910012674271229,0.14929577464788732,0.854793793926535,0.7417567924030599,0.23156744948115784,3640,4426,411,8066,0.7482023307711381,0.5395186095186095,0.8854395604395604,0.6353366470854044,0.0,0.8571808510638298,0.907682375726275,0.0,0.8710810810810811,0.7474747474747475,0.0,3640,4426,0,119,0.8907563025210085,0.31407407407407406,0.0,0.0,0.8907563025210085,0.0,0.0,1.0,0.0,0.0,0.9422222222222222,0,0,119,292,0.363013698630137,0.17755443886097153,0.0,0.0,0.363013698630137,0.0,0.0,1.0,0.0,0.0,0.5326633165829145,0,0,292,8185,0.7502748930971289,0.5884026492462391,0.8854395604395604,0.6353366470854044,0.8907563025210085,0.8571808510638298,0.9038894246223079,0.0806697108066971,0.8710810810810811,0.7461854849409579,0.1479413817166783,3640,4426,119,0.149764443342425,0.5158150851581509,1.1055360165003794
simple_pc1_gm_gate_t254,score_all_max,0.02,pc2__ge,-1.0634046292314407,782,8477,0.7416538869883214,0.6113881972935266,0.8903846153846153,0.6421147763217352,0.49635036496350365,0.8151408450704225,0.8923076923076924,0.15501519756838905,0.8511029411764706,0.7468138220995927,0.2362478286045165,3640,4426,411,8066,0.7541532358046119,0.5402283410224971,0.8903846153846153,0.6421147763217352,0.0,0.8475418410041841,0.9079872204472843,0.0,0.8684351554126474,0.7522498676548438,0.0,3640,4426,0,119,0.9495798319327731,0.32471264367816094,0.0,0.0,0.9495798319327731,0.0,0.0,1.0,0.0,0.0,0.9741379310344828,0,0,119,292,0.3116438356164384,0.15839860748476936,0.0,0.0,0.3116438356164384,0.0,0.0,1.0,0.0,0.0,0.4751958224543081,0,0,292,8185,0.7569945021380574,0.5960809730562571,0.8903846153846153,0.6421147763217352,0.9495798319327731,0.8475418410041841,0.90625,0.09224489795918367,0.8684351554126474,0.7516530018513621,0.16815476190476192,3640,4426,119,0.13786263327547732,0.49635036496350365,1.1045600648579295
simple_pc1_gm_gate_t254,score_core,0.01,pc2__ge,-1.0634046292314407,753,8477,0.7404742243718296,0.6107779237626317,0.8895604395604395,0.640533212833258,0.49635036496350365,0.8082875686470294,0.8903894472361809,0.1585081585081585,0.8469788124509547,0.7450722733245729,0.24028268551236748,3640,4426,411,8066,0.7529134639226382,0.5382234524118282,0.8895604395604395,0.640533212833258,0.0,0.840384116273034,0.9057507987220448,0.0,0.8642733217669826,0.7503970354685019,0.0,3640,4426,0,119,0.957983193277311,0.3261802575107296,0.0,0.0,0.957983193277311,0.0,0.0,1.0,0.0,0.0,0.9785407725321889,0,0,119,292,0.3082191780821918,0.15706806282722513,0.0,0.0,0.3082191780821918,0.0,0.0,1.0,0.0,0.0,0.4712041884816754,0,0,292,8185,0.7558949297495419,0.5958088027246107,0.8895604395604395,0.640533212833258,0.957983193277311,0.840384116273034,0.9043062200956937,0.09523809523809523,0.8642733217669826,0.7499008067715911,0.17325227963525835,3640,4426,119,0.13426729481775354,0.49635036496350365,1.1041272078129813
simple_pc1_gm_gate_t254,score_core,0.01,qrs_visibility__le,0.1065758014715877,711,8477,0.7440132122213047,0.612417328705725,0.8931318681318682,0.6455038409399005,0.48418491484184917,0.8085053469286247,0.8897539707256307,0.1598393574297189,0.8487142670669625,0.7481995547990048,0.24033816425120774,3640,4426,411,8066,0.7572526655095463,0.5400114661425163,0.8931318681318682,0.6455038409399005,0.0,0.8404860392967942,0.9064086294416244,0.0,0.866009589770911,0.7540248086566377,0.0,3640,4426,0,119,0.957983193277311,0.3261802575107296,0.0,0.0,0.957983193277311,0.0,0.0,1.0,0.0,0.0,0.9785407725321889,0,0,119,292,0.2910958904109589,0.15030946065428824,0.0,0.0,0.2910958904109589,0.0,0.0,1.0,0.0,0.0,0.4509283819628647,0,0,292,8185,0.760171044593769,0.599267162106354,0.8931318681318682,0.6455038409399005,0.957983193277311,0.8404860392967942,0.904973075704783,0.09827586206896552,0.866009589770911,0.7535276275880258,0.1782642689601251,3640,4426,119,0.1296801388544508,0.48418491484184917,1.1008397949691924
simple_pc1_gm_gate_t254,score_core,0.01,pc1__ge,-6.099036591134506,735,8477,0.7401203255868821,0.6094603781177294,0.8898351648351648,0.640533212833258,0.48661800486618007,0.8043208343680159,0.8912291732159698,0.15760441292356187,0.8449197860962567,0.7453661101616932,0.23809523809523808,3640,4426,411,8066,0.7530374411108356,0.5377749897989451,0.8898351648351648,0.640533212833258,0.0,0.8376002068787174,0.9057507987220448,0.0,0.8629279339283336,0.7503970354685019,0.0,3640,4426,0,119,0.9831932773109243,0.3305084745762712,0.0,0.0,0.9831932773109243,0.0,0.0,1.0,0.0,0.0,0.9915254237288136,0,0,119,292,0.2842465753424658,0.14755555555555555,0.0,0.0,0.2842465753424658,0.0,0.0,1.0,0.0,0.0,0.44266666666666665,0,0,292,8185,0.7563836285888821,0.5974789146527847,0.8898351648351648,0.640533212833258,0.9831932773109243,0.8376002068787174,0.9051724137931034,0.09865092748735245,0.8629279339283336,0.7501984652024345,0.1793103448275862,3640,4426,119,0.13253161418299034,0.48661800486618007,1.1005526051880536
simple_pc1_gm_gate_t254,score_all_max,0.02,qrs_visibility__le,0.1065758014715877,748,8477,0.7434233809130588,0.6115798071870469,0.8934065934065935,0.6441482150926344,0.48418491484184917,0.8152419152669842,0.8892701185277605,0.15522620904836193,0.852536374360991,0.7471174004192872,0.23508564678086238,3640,4426,411,8066,0.7566327795685593,0.54096836685269,0.8934065934065935,0.6441482150926344,0.0,0.8475371383893667,0.9062301335028607,0.0,0.8698675939547947,0.7530375066032752,0.0,3640,4426,0,119,0.9495798319327731,0.32471264367816094,0.0,0.0,0.9495798319327731,0.0,0.0,1.0,0.0,0.0,0.9741379310344828,0,0,119,292,0.2945205479452055,0.15167548500881833,0.0,0.0,0.2945205479452055,0.0,0.0,1.0,0.0,0.0,0.455026455026455,0,0,292,8185,0.7594379963347587,0.598057329735804,0.8934065934065935,0.6441482150926344,0.9495798319327731,0.8475371383893667,0.9045050761421319,0.09448160535117058,0.8698675939547947,0.7524412773818949,0.17186311787072242,3640,4426,119,0.13426729481775354,0.48418491484184917,1.0995031580894028
simple_pc1_gm_gate_t254,score_all_max,0.01,qrs_visibility__ge,0.018109057926941858,585,8477,0.7443671110062522,0.6133546523356193,0.8876373626373626,0.6516041572525982,0.4744525547445255,0.7802463173146583,0.8964874106310227,0.1742627345844504,0.8304845135586686,0.7546774826638755,0.2549019607843137,3640,4426,411,8066,0.7581205058269278,0.5360899260989664,0.8876373626373626,0.6516041572525982,0.0,0.8134441087613293,0.9097791798107255,0.0,0.848922753547031,0.7593470247498684,0.0,3640,4426,0,119,0.9915966386554622,0.33192686357243323,0.0,0.0,0.9915966386554622,0.0,0.0,1.0,0.0,0.0,0.9957805907172996,0,0,119,292,0.2636986301369863,0.13911472448057813,0.0,0.0,0.2636986301369863,0.0,0.0,1.0,0.0,0.0,0.4173441734417344,0,0,292,8185,0.7615149664019548,0.6038142884138982,0.8876373626373626,0.6516041572525982,0.9915966386554622,0.8134441087613293,0.9094922737306843,0.11324376199616124,0.848922753547031,0.7592470712123206,0.20327304048234282,3640,4426,119,0.11455492189437144,0.4744525547445255,1.0987197954857033
simple_pc1_gm_gate_t254,score_all_max,0.01,pc3__ge,-1.610530736647411,675,8477,0.7401203255868821,0.6092384186631973,0.9035714285714286,0.6296882060551288,0.48175182481751827,0.7923391953746085,0.8941289701636189,0.16377171215880892,0.8443075343344885,0.7389632772106589,0.24444444444444444,3640,4426,411,8066,0.7532853954872304,0.5354471066789136,0.9035714285714286,0.6296882060551288,0.0,0.8261743280582768,0.9066363044892648,0.0,0.8631413200367406,0.7432,0.0,3640,4426,0,119,0.9915966386554622,0.33192686357243323,0.0,0.0,0.9915966386554622,0.0,0.0,1.0,0.0,0.0,0.9957805907172996,0,0,119,292,0.273972602739726,0.14336917562724014,0.0,0.0,0.273972602739726,0.0,0.0,1.0,0.0,0.0,0.43010752688172044,0,0,292,8185,0.7567501527183873,0.5984482680055515,0.9035714285714286,0.6296882060551288,0.9915966386554622,0.8261743280582768,0.9063414634146342,0.10451727192205491,0.8631413200367406,0.7431009198773497,0.1891025641025641,3640,4426,119,0.12534093726754278,0.48175182481751827,1.0985688504822917
simple_pc1_gm_gate_t254,score_all_max,0.03,pc3__le,3.281193089810729,700,8477,0.7461366049309898,0.6125725720918648,0.8936813186813187,0.6502485314053321,0.4720194647201946,0.809002735637901,0.8932340161390441,0.15721231766612642,0.8492363921159117,0.7526150627615062,0.2358662613981763,3640,4426,411,8066,0.7601041408380858,0.5418829948797305,0.8936813186813187,0.6502485314053321,0.0,0.8429644985747603,0.9087464477423429,0.0,0.867582344312575,0.7580666403266166,0.0,3640,4426,0,119,0.9663865546218487,0.3276353276353276,0.0,0.0,0.9663865546218487,0.0,0.0,1.0,0.0,0.0,0.9829059829059829,0,0,119,292,0.2705479452054795,0.14195867026055706,0.0,0.0,0.2705479452054795,0.0,0.0,1.0,0.0,0.0,0.42587601078167114,0,0,292,8185,0.7631032376298106,0.6019278655346586,0.8936813186813187,0.6502485314053321,0.9663865546218487,0.8429644985747603,0.9076001261431725,0.09956709956709957,0.867582344312575,0.7576675003290773,0.18053375196232338,3640,4426,119,0.12893627572526656,0.4720194647201946,1.0968835925571572
simple_pc1_gm_gate_t254,score_all_max,0.03,none,,709,8477,0.7450749085761472,0.6116548865015613,0.8936813186813187,0.6482150926344329,0.4720194647201946,0.809002735637901,0.8929349517584811,0.15607401448109412,0.8492363921159117,0.7511454378845399,0.23458282950423218,3640,4426,411,8066,0.7589883461443094,0.5413917237722647,0.8936813186813187,0.6482150926344329,0.0,0.8429644985747603,0.9084863837872071,0.0,0.867582344312575,0.7565928270042194,0.0,3640,4426,0,119,0.9663865546218487,0.3276353276353276,0.0,0.0,0.9663865546218487,0.0,0.0,1.0,0.0,0.0,0.9829059829059829,0,0,119,292,0.2705479452054795,0.14195867026055706,0.0,0.0,0.2705479452054795,0.0,0.0,1.0,0.0,0.0,0.42587601078167114,0,0,292,8185,0.762003665241295,0.6010145589969017,0.8936813186813187,0.6482150926344329,0.9663865546218487,0.8429644985747603,0.907337128399747,0.09879725085910653,0.867582344312575,0.7561939905113337,0.17926734216679657,3640,4426,119,0.1300520704190429,0.4720194647201946,1.0958218962023145
simple_pc1_gm_gate_t254,score_all_max,0.03,qrs_visibility__le,0.2800807397384144,709,8477,0.7450749085761472,0.6116548865015613,0.8936813186813187,0.6482150926344329,0.4720194647201946,0.809002735637901,0.8929349517584811,0.15607401448109412,0.8492363921159117,0.7511454378845399,0.23458282950423218,3640,4426,411,8066,0.7589883461443094,0.5413917237722647,0.8936813186813187,0.6482150926344329,0.0,0.8429644985747603,0.9084863837872071,0.0,0.867582344312575,0.7565928270042194,0.0,3640,4426,0,119,0.9663865546218487,0.3276353276353276,0.0,0.0,0.9663865546218487,0.0,0.0,1.0,0.0,0.0,0.9829059829059829,0,0,119,292,0.2705479452054795,0.14195867026055706,0.0,0.0,0.2705479452054795,0.0,0.0,1.0,0.0,0.0,0.42587601078167114,0,0,292,8185,0.762003665241295,0.6010145589969017,0.8936813186813187,0.6482150926344329,0.9663865546218487,0.8429644985747603,0.907337128399747,0.09879725085910653,0.867582344312575,0.7561939905113337,0.17926734216679657,3640,4426,119,0.1300520704190429,0.4720194647201946,1.0958218962023145
simple_pc1_gm_gate_t254,score_all_max,0.03,qrs_visibility__le,0.3732307518330272,709,8477,0.7450749085761472,0.6116548865015613,0.8936813186813187,0.6482150926344329,0.4720194647201946,0.809002735637901,0.8929349517584811,0.15607401448109412,0.8492363921159117,0.7511454378845399,0.23458282950423218,3640,4426,411,8066,0.7589883461443094,0.5413917237722647,0.8936813186813187,0.6482150926344329,0.0,0.8429644985747603,0.9084863837872071,0.0,0.867582344312575,0.7565928270042194,0.0,3640,4426,0,119,0.9663865546218487,0.3276353276353276,0.0,0.0,0.9663865546218487,0.0,0.0,1.0,0.0,0.0,0.9829059829059829,0,0,119,292,0.2705479452054795,0.14195867026055706,0.0,0.0,0.2705479452054795,0.0,0.0,1.0,0.0,0.0,0.42587601078167114,0,0,292,8185,0.762003665241295,0.6010145589969017,0.8936813186813187,0.6482150926344329,0.9663865546218487,0.8429644985747603,0.907337128399747,0.09879725085910653,0.867582344312575,0.7561939905113337,0.17926734216679657,3640,4426,119,0.1300520704190429,0.4720194647201946,1.0958218962023145
simple_pc1_gm_gate_t254,score_core,0.01,pc3__ge,-2.4479177605053817,677,8477,0.7420077857732689,0.6099409838565598,0.8956043956043956,0.640533212833258,0.4744525547445255,0.7980416156670747,0.8912291732159698,0.1610239471511148,0.8440129449838187,0.7453661101616932,0.2404438964241677,3640,4426,411,8066,0.7556409620629804,0.5376102993007881,0.8956043956043956,0.640533212833258,0.0,0.8316326530612245,0.9057507987220448,0.0,0.8624338624338624,0.7503970354685019,0.0,3640,4426,0,119,0.9831932773109243,0.3305084745762712,0.0,0.0,0.9831932773109243,0.0,0.0,1.0,0.0,0.0,0.9915254237288136,0,0,119,292,0.2671232876712329,0.14054054054054055,0.0,0.0,0.2671232876712329,0.0,0.0,1.0,0.0,0.0,0.42162162162162165,0,0,292,8185,0.7589492974954184,0.5998444287009168,0.8956043956043956,0.640533212833258,0.9831932773109243,0.8316326530612245,0.9051724137931034,0.10326566637246248,0.8624338624338624,0.7501984652024345,0.1869009584664537,3640,4426,119,0.12596082320852964,0.4744525547445255,1.0956136646811763
simple_pc1_gm_gate_t254,score_all_max,0.02,pc1__ge,-6.099036591134506,750,8477,0.740710156895128,0.608524069476478,0.8906593406593407,0.6418888386805242,0.4768856447688564,0.8080757726819542,0.8931153725243635,0.1526479750778816,0.847360167276529,0.7469436045747337,0.2312684365781711,3640,4426,411,8066,0.7541532358046119,0.5392959633685255,0.8906593406593407,0.6418888386805242,0.0,0.8422967004416732,0.9079578139980825,0.0,0.8658031779943918,0.7520847121111847,0.0,3640,4426,0,119,0.9747899159663865,0.32907801418439714,0.0,0.0,0.9747899159663865,0.0,0.0,1.0,0.0,0.0,0.9872340425531915,0,0,119,292,0.273972602739726,0.14336917562724014,0.0,0.0,0.273972602739726,0.0,0.0,1.0,0.0,0.0,0.43010752688172044,0,0,292,8185,0.7573610262675626,0.5976494657727306,0.8906593406593407,0.6418888386805242,0.9747899159663865,0.8422967004416732,0.907088122605364,0.09634551495016612,0.8658031779943918,0.7517861868219106,0.17535903250188964,3640,4426,119,0.1348871807587404,0.4768856447688564,1.0949345103701444
simple_pc1_gm_gate_t254,score_core,0.02,pc3__le,2.1506591515994145,541,8477,0.7551020408163265,0.6192048847450015,0.8934065934065935,0.6694532309082694,0.45255474452554745,0.7960832313341494,0.8932770575821526,0.17302325581395347,0.8419417475728155,0.7653364329071419,0.2503364737550471,3640,4426,411,8066,0.770518224646665,0.5438813946402592,0.8934065934065935,0.6694532309082694,0.0,0.8298035213064557,0.9094536525475752,0.0,0.8604312739780394,0.7712129099427382,0.0,3640,4426,0,119,0.9663865546218487,0.3276353276353276,0.0,0.0,0.9663865546218487,0.0,0.0,1.0,0.0,0.0,0.9829059829059829,0,0,119,292,0.24315068493150685,0.13039485766758493,0.0,0.0,0.24315068493150685,0.0,0.0,1.0,0.0,0.0,0.39118457300275483,0,0,292,8185,0.773365913255956,0.6120171590117652,0.8934065934065935,0.6694532309082694,0.9663865546218487,0.8298035213064557,0.9083384426732066,0.1145418326693227,0.8604312739780394,0.7708116545265349,0.20480854853072128,3640,4426,119,0.11021572030746343,0.45255474452554745,1.0949267873332713
simple_pc1_gm_gate_t254,score_core,0.01,pc1__ge,-5.359154835604749,686,8477,0.7409460894184263,0.6090492697616615,0.8931318681318682,0.640533212833258,0.4744525547445255,0.7975956820412169,0.8912291732159698,0.1598360655737705,0.8426645930533956,0.7453661101616932,0.23911710606989578,3640,4426,411,8066,0.754525167369204,0.5371583461273411,0.8931318681318682,0.640533212833258,0.0,0.8312452058297111,0.9057507987220448,0.0,0.8610780029135214,0.7503970354685019,0.0,3640,4426,0,119,0.9831932773109243,0.3305084745762712,0.0,0.0,0.9831932773109243,0.0,0.0,1.0,0.0,0.0,0.9915254237288136,0,0,119,292,0.2671232876712329,0.14054054054054055,0.0,0.0,0.2671232876712329,0.0,0.0,1.0,0.0,0.0,0.42162162162162165,0,0,292,8185,0.7578497251069028,0.5989478261417448,0.8931318681318682,0.640533212833258,0.9831932773109243,0.8312452058297111,0.9051724137931034,0.10245183887915937,0.8610780029135214,0.7501984652024345,0.18556701030927836,3640,4426,119,0.12707661790230598,0.4744525547445255,1.0945519683263338
simple_pc1_gm_gate_t254,score_all_max,0.05,pc3__le,2.1506591515994145,555,8477,0.7578152648342574,0.6202425165468757,0.8964285714285715,0.6726163578852237,0.44768856447688565,0.8036945812807882,0.89453125,0.1689623507805326,0.8475324675324676,0.7678617487748259,0.24533333333333332,3640,4426,411,8066,0.7736176543515993,0.5467189582881793,0.8964285714285715,0.6726163578852237,0.0,0.8379558294812532,0.911233547597184,0.0,0.8662065303955402,0.7739503444689978,0.0,3640,4426,0,119,0.957983193277311,0.3261802575107296,0.0,0.0,0.957983193277311,0.0,0.0,1.0,0.0,0.0,0.9785407725321889,0,0,119,292,0.23972602739726026,0.1289134438305709,0.0,0.0,0.23972602739726026,0.0,0.0,1.0,0.0,0.0,0.3867403314917127,0,0,292,8185,0.7762981062919976,0.61333522432811,0.8964285714285715,0.6726163578852237,0.957983193277311,0.8379558294812532,0.909841075794621,0.11187438665358194,0.8662065303955402,0.7734476487399324,0.20035149384885764,3640,4426,119,0.11219935531862138,0.44768856447688565,1.0941626455023532
simple_pc1_gm_gate_t254,score_all_max,0.01,pc2__le,14.810379664891448,584,8477,0.7383508316621447,0.6086752514635979,0.8931318681318682,0.6355625847266154,0.4744525547445255,0.7714760322733745,0.8944356120826709,0.1744186046511628,0.8278584160937102,0.7430986659622243,0.25506867233485936,3640,4426,411,8066,0.7517976692288619,0.5312716879301628,0.8931318681318682,0.6355625847266154,0.0,0.8039070227497527,0.9077121652145853,0.0,0.8461738677771994,0.747641196013289,0.0,3640,4426,0,119,0.9915966386554622,0.33192686357243323,0.0,0.0,0.9915966386554622,0.0,0.0,1.0,0.0,0.0,0.9957805907172996,0,0,119,292,0.2636986301369863,0.13911472448057813,0.0,0.0,0.2636986301369863,0.0,0.0,1.0,0.0,0.0,0.4173441734417344,0,0,292,8185,0.7552840562003665,0.5990546661807571,0.8931318681318682,0.6355625847266154,0.9915966386554622,0.8039070227497527,0.9074193548387097,0.11335254562920269,0.8461738677771994,0.747541854903003,0.20344827586206896,3640,4426,119,0.11443094470617407,0.4744525547445255,1.0927035161415957
simple_pc1_gm_gate_t254,score_core,0.01,pc1__le,-0.7734152380448813,674,8477,0.7474342338091305,0.6139992422638856,0.8895604395604395,0.6561229100768188,0.4720194647201946,0.8082875686470294,0.8899785473490652,0.1605960264900662,0.8469788124509547,0.7553648068669528,0.23965410747374924,3640,4426,411,8066,0.7614678899082569,0.5419927465999231,0.8895604395604395,0.6561229100768188,0.0,0.840384116273034,0.9077836824007502,0.0,0.8642733217669826,0.7617049180327868,0.0,3640,4426,0,119,0.8907563025210085,0.31407407407407406,0.0,0.0,0.8907563025210085,0.0,0.0,1.0,0.0,0.0,0.9422222222222222,0,0,119,292,0.3013698630136986,0.1543859649122807,0.0,0.0,0.3013698630136986,0.0,0.0,1.0,0.0,0.0,0.4631578947368421,0,0,292,8185,0.7633475870494808,0.5985958453636849,0.8895604395604395,0.6561229100768188,0.8907563025210085,0.840384116273034,0.9041095890410958,0.09464285714285714,0.8642733217669826,0.7604084838963079,0.17110573042776434,3640,4426,119,0.1257128688321349,0.4720194647201946,1.0914599712914048
simple_pc1_gm_gate_t254,score_all_max,0.02,pc3__le,0.0402656504923967,450,8477,0.7657190043647517,0.6266614238590208,0.8914835164835165,0.692950745594216,0.43552311435523117,0.7990642698842649,0.8936480186480187,0.18191056910569106,0.8427476951045318,0.7806057520997709,0.25663082437275986,3640,4426,411,8066,0.7825440119018101,0.5494629526035174,0.8914835164835165,0.692950745594216,0.0,0.8307731694828469,0.9141579731743666,0.0,0.8600583090379009,0.7883305487726513,0.0,3640,4426,0,119,0.8991596638655462,0.31563421828908556,0.0,0.0,0.8991596638655462,0.0,0.0,1.0,0.0,0.0,0.9469026548672567,0,0,119,292,0.2465753424657534,0.13186813186813187,0.0,0.0,0.2465753424657534,0.0,0.0,1.0,0.0,0.0,0.3956043956043956,0,0,292,8185,0.7842394624312767,0.618246807532084,0.8914835164835165,0.692950745594216,0.8991596638655462,0.8307731694828469,0.9108999108999108,0.11732456140350878,0.8600583090379009,0.7871166431412806,0.2075654704170708,3640,4426,119,0.09980163649888421,0.43552311435523117,1.0900123453387776
simple_pc1_gm_gate_t254,score_all_max,0.02,pc3__ge,-2.4479177605053817,690,8477,0.7424796508198656,0.6088457017173646,0.8961538461538462,0.6418888386805242,0.46472019464720193,0.8010805500982319,0.8931153725243635,0.15604575163398693,0.845954356846473,0.7469436045747337,0.23363914373088684,3640,4426,411,8066,0.7566327795685593,0.5389593084202359,0.8961538461538462,0.6418888386805242,0.0,0.8355532786885246,0.9079578139980825,0.0,0.8647932131495228,0.7520847121111847,0.0,3640,4426,0,119,0.9747899159663865,0.32907801418439714,0.0,0.0,0.9747899159663865,0.0,0.0,1.0,0.0,0.0,0.9872340425531915,0,0,119,292,0.2568493150684932,0.13623978201634876,0.0,0.0,0.2568493150684932,0.0,0.0,1.0,0.0,0.0,0.4087193460490463,0,0,292,8185,0.7598045204642639,0.5998482332186587,0.8961538461538462,0.6418888386805242,0.9747899159663865,0.8355532786885246,0.907088122605364,0.10095735422106179,0.8647932131495228,0.7517861868219106,0.1829652996845426,3640,4426,119,0.12806843540788496,0.46472019464720193,1.0898776036016182
simple_pc1_gm_gate_t254,score_all_max,0.02,pc1__le,0.15713262094765446,755,8477,0.7429515158664622,0.61028005611776,0.8903846153846153,0.6464075915047447,0.4768856447688564,0.8151408450704225,0.8907222914072229,0.15205585725368503,0.8511029411764706,0.7491489918826918,0.23058823529411765,3640,4426,411,8066,0.756508802380362,0.541271564455481,0.8903846153846153,0.6464075915047447,0.0,0.8475418410041841,0.9085423944109241,0.0,0.8684351554126474,0.7553795379537954,0.0,3640,4426,0,119,0.8907563025210085,0.31407407407407406,0.0,0.0,0.8907563025210085,0.0,0.0,1.0,0.0,0.0,0.9422222222222222,0,0,119,292,0.3082191780821918,0.15706806282722513,0.0,0.0,0.3082191780821918,0.0,0.0,1.0,0.0,0.0,0.4712041884816754,0,0,292,8185,0.7584605986560782,0.5944567752639608,0.8903846153846153,0.6464075915047447,0.8907563025210085,0.8475418410041841,0.9048070841239721,0.0884070058381985,0.8684351554126474,0.7540853979968372,0.16084977238239756,3640,4426,119,0.13550706669972726,0.4768856447688564,1.089707813626042
simple_pc1_gm_gate_t254,score_all_max,0.01,qrs_visibility__le,0.0524517835345784,692,8477,0.7483779639023239,0.6137115461211409,0.9035714285714286,0.6468594667871668,0.46715328467153283,0.8181592039800994,0.8861033735685546,0.1566068515497553,0.8587467362924281,0.7478124591876714,0.23457544288332316,3640,4426,411,8066,0.7627076617902306,0.5434810248249212,0.9035714285714286,0.6468594667871668,0.0,0.8489932885906041,0.9065864471184294,0.0,0.8754325259515571,0.7550105485232067,0.0,3640,4426,0,119,0.8907563025210085,0.31407407407407406,0.0,0.0,0.8907563025210085,0.0,0.0,1.0,0.0,0.0,0.9422222222222222,0,0,119,292,0.2945205479452055,0.15167548500881833,0.0,0.0,0.2945205479452055,0.0,0.0,1.0,0.0,0.0,0.455026455026455,0,0,292,8185,0.7645693341478313,0.5991795694287292,0.9035714285714286,0.6468594667871668,0.8907563025210085,0.8489932885906041,0.9028697571743929,0.09298245614035087,0.8754325259515571,0.7537185731209688,0.16838760921366164,3640,4426,119,0.12819241259608233,0.46715328467153283,1.0896731411072924
simple_pc1_gm_gate_t254,score_all_max,0.02,pc1__le,-0.7734152380448813,717,8477,0.7467264362392356,0.6126376361705982,0.8903846153846153,0.6543154089471306,0.46958637469586373,0.8151408450704225,0.8910769230769231,0.1542765787370104,0.8511029411764706,0.7545596664929651,0.2322503008423586,3640,4426,411,8066,0.76084800396727,0.543179655395981,0.8903846153846153,0.6543154089471306,0.0,0.8475418410041841,0.9095477386934674,0.0,0.8684351554126474,0.7611038107752957,0.0,3640,4426,0,119,0.8907563025210085,0.31407407407407406,0.0,0.0,0.8907563025210085,0.0,0.0,1.0,0.0,0.0,0.9422222222222222,0,0,119,292,0.2979452054794521,0.15303430079155672,0.0,0.0,0.2979452054794521,0.0,0.0,1.0,0.0,0.0,0.45910290237467016,0,0,292,8185,0.7627367135003055,0.5978262434039223,0.8903846153846153,0.6543154089471306,0.8907563025210085,0.8475418410041841,0.905849233656553,0.09106529209621993,0.8684351554126474,0.7598058507149417,0.1652377240841777,3640,4426,119,0.13116786511281925,0.46958637469586373,1.089386893582857
simple_pc1_gm_gate_t254,score_all_max,0.03,pc2__ge,-1.0634046292314407,706,8477,0.7447210097911997,0.6104872930280495,0.8936813186813187,0.6482150926344329,0.46472019464720193,0.809002735637901,0.8921019900497512,0.15403225806451612,0.8492363921159117,0.7508505626799267,0.2313749242883101,3640,4426,411,8066,0.7589883461443094,0.5413917237722647,0.8936813186813187,0.6482150926344329,0.0,0.8429644985747603,0.9084863837872071,0.0,0.867582344312575,0.7565928270042194,0.0,3640,4426,0,119,0.9411764705882353,0.32323232323232326,0.0,0.0,0.9411764705882353,0.0,0.0,1.0,0.0,0.0,0.9696969696969697,0,0,119,292,0.2705479452054795,0.14195867026055706,0.0,0.0,0.2705479452054795,0.0,0.0,1.0,0.0,0.0,0.42587601078167114,0,0,292,8185,0.7616371411117898,0.5994924944309822,0.8936813186813187,0.6482150926344329,0.9411764705882353,0.8429644985747603,0.906477093206951,0.09646856158484066,0.867582344312575,0.7558951389803715,0.175,3640,4426,119,0.1300520704190429,0.46472019464720193,1.0891317402867777
simple_pc1_gm_gate_t254,score_all_max,0.02,pc2__ge,1.9185090159687288,775,8477,0.7408281231567772,0.6087667670541019,0.8903846153846153,0.6421147763217352,0.4793187347931874,0.8151408450704225,0.8903508771929824,0.15049656226126815,0.8511029411764706,0.7461275925439748,0.22906976744186047,3640,4426,411,8066,0.7541532358046119,0.5402283410224971,0.8903846153846153,0.6421147763217352,0.0,0.8475418410041841,0.9079872204472843,0.0,0.8684351554126474,0.7522498676548438,0.0,3640,4426,0,119,0.8907563025210085,0.31407407407407406,0.0,0.0,0.8907563025210085,0.0,0.0,1.0,0.0,0.0,0.9422222222222222,0,0,119,292,0.3116438356164384,0.15839860748476936,0.0,0.0,0.3116438356164384,0.0,0.0,1.0,0.0,0.0,0.4751958224543081,0,0,292,8185,0.756139279169212,0.592652319652881,0.8903846153846153,0.6421147763217352,0.8907563025210085,0.8475418410041841,0.9042316258351893,0.08702791461412152,0.8684351554126474,0.7509578544061303,0.15856394913986538,3640,4426,119,0.13786263327547732,0.4793187347931874,1.0889497010550098
simple_pc1_gm_gate_t254,score_core,0.01,pc3__le,0.0402656504923967,414,8477,0.765247139318155,0.6268831760606549,0.8912087912087913,0.6924988703117939,0.43309002433090027,0.7923790913531998,0.8922852983988355,0.1877637130801688,0.8388931988621671,0.779799007759827,0.2619573215599706,3640,4426,411,8066,0.782172080337218,0.5478997176585597,0.8912087912087913,0.6924988703117939,0.0,0.8241869918699187,0.9122023809523809,0.0,0.856388595564942,0.7873105574107372,0.0,3640,4426,0,119,0.907563025210084,0.3171806167400881,0.0,0.0,0.907563025210084,0.0,0.0,1.0,0.0,0.0,0.9515418502202643,0,0,119,292,0.23972602739726026,0.1289134438305709,0.0,0.0,0.23972602739726026,0.0,0.0,1.0,0.0,0.0,0.3867403314917127,0,0,292,8185,0.7839951130116066,0.6197461219527504,0.8912087912087913,0.6924988703117939,0.907563025210084,0.8241869918699187,0.9092257490358944,0.12300683371298406,0.856388595564942,0.7861998204437605,0.21664994984954863,3640,4426,119,0.0954624349119762,0.43309002433090027,1.088922005725072
simple_pc1_gm_gate_t254,score_all_max,0.02,pc1__ge,-5.359154835604749,689,8477,0.741417954465023,0.6080788966157737,0.8936813186813187,0.6418888386805242,0.46472019464720193,0.79867419592438,0.8931153725243635,0.1561733442354865,0.8435109555296253,0.7469436045747337,0.23378212974296206,3640,4426,411,8066,0.755516984874783,0.5381258737741943,0.8936813186813187,0.6418888386805242,0.0,0.83303457106274,0.9079578139980825,0.0,0.8622929092113982,0.7520847121111847,0.0,3640,4426,0,119,0.9747899159663865,0.32907801418439714,0.0,0.0,0.9747899159663865,0.0,0.0,1.0,0.0,0.0,0.9872340425531915,0,0,119,292,0.2568493150684932,0.13623978201634876,0.0,0.0,0.2568493150684932,0.0,0.0,1.0,0.0,0.0,0.4087193460490463,0,0,292,8185,0.7587049480757483,0.5990629346682984,0.8936813186813187,0.6418888386805242,0.9747899159663865,0.83303457106274,0.907088122605364,0.10104529616724739,0.8622929092113982,0.7517861868219106,0.18310970797158643,3640,4426,119,0.12794445821968758,0.46472019464720193,1.0888159072467756
simple_pc1_gm_gate_t254,score_core,0.01,pc1__le,0.15713262094765446,718,8477,0.7424796508198656,0.6099859317505679,0.8895604395604395,0.6464075915047447,0.4744525547445255,0.8082875686470294,0.8887853370611991,0.15575079872204473,0.8469788124509547,0.7484630477436233,0.23451593505712567,3640,4426,411,8066,0.7561368708157699,0.5396518212273481,0.8895604395604395,0.6464075915047447,0.0,0.840384116273034,0.9065272496831432,0.0,0.8642733217669826,0.754682141915062,0.0,3640,4426,0,119,0.8907563025210085,0.31407407407407406,0.0,0.0,0.8907563025210085,0.0,0.0,1.0,0.0,0.0,0.9422222222222222,0,0,119,292,0.3047945205479452,0.1557305336832896,0.0,0.0,0.3047945205479452,0.0,0.0,1.0,0.0,0.0,0.4671916010498688,0,0,292,8185,0.758094074526573,0.5943434416149996,0.8895604395604395,0.6464075915047447,0.8907563025210085,0.840384116273034,0.9028084569264753,0.09114359415305245,0.8642733217669826,0.7533903884134299,0.16536661466458658,3640,4426,119,0.13104388792462188,0.4744525547445255,1.0878706684407924
simple_pc1_gm_gate_t254,score_all_max,0.03,pc1__ge,-6.099036591134506,679,8477,0.7444850772679014,0.6096187942451041,0.893956043956044,0.6482150926344329,0.45742092457420924,0.8032584547025425,0.8929349517584811,0.1549876339653751,0.8461838512547133,0.7511454378845399,0.2315270935960591,3640,4426,411,8066,0.7591123233325068,0.5405577490164714,0.893956043956044,0.6482150926344329,0.0,0.83801184651043,0.9084863837872071,0.0,0.8650804200451947,0.7565928270042194,0.0,3640,4426,0,119,0.9663865546218487,0.3276353276353276,0.0,0.0,0.9663865546218487,0.0,0.0,1.0,0.0,0.0,0.9829059829059829,0,0,119,292,0.25,0.13333333333333333,0.0,0.0,0.25,0.0,0.0,1.0,0.0,0.0,0.4,0,0,292,8185,0.7621258399511301,0.6013196936432802,0.893956043956044,0.6482150926344329,0.9663865546218487,0.83801184651043,0.907337128399747,0.10087719298245613,0.8650804200451947,0.7561939905113337,0.18268467037331215,3640,4426,119,0.12707661790230598,0.45742092457420924,1.0870403840621519
simple_pc1_gm_gate_t254,score_core,0.02,pc3__le,3.281193089810729,625,8477,0.7457827061460423,0.6110101433954612,0.8934065934065935,0.6513782196113873,0.45498783454987834,0.7966682998530132,0.8909147095179234,0.16134598792062121,0.8422688422688422,0.7525450274079875,0.23821656050955414,3640,4426,411,8066,0.7606000495908752,0.5396860029367955,0.8934065934065935,0.6513782196113873,0.0,0.8304392236976507,0.9071743234738829,0.0,0.860772895712017,0.7582851130983693,0.0,3640,4426,0,119,0.9663865546218487,0.3276353276353276,0.0,0.0,0.9663865546218487,0.0,0.0,1.0,0.0,0.0,0.9829059829059829,0,0,119,292,0.2465753424657534,0.13186813186813187,0.0,0.0,0.2465753424657534,0.0,0.0,1.0,0.0,0.0,0.3956043956043956,0,0,292,8185,0.7635919364691509,0.6031241440680365,0.8934065934065935,0.6513782196113873,0.9663865546218487,0.8304392236976507,0.9060339409176619,0.10579576816927323,0.860772895712017,0.7578864353312302,0.19071310116086235,3640,4426,119,0.12050582692784528,0.45498783454987834,1.0869727328016399
simple_pc1_gm_gate_t254,score_all_max,0.03,qrs_visibility__le,0.1065758014715877,682,8477,0.7459006724076914,0.6107084593179968,0.8953296703296704,0.64979665612291,0.45742092457420924,0.808885579548275,0.8898514851485149,0.15460526315789475,0.8499152431868562,0.751109950378689,0.23110018438844498,3640,4426,411,8066,0.7606000495908752,0.5417990902756041,0.8953296703296704,0.64979665612291,0.0,0.8427721748125162,0.9069694102806686,0.0,0.8682562941254829,0.7571409767013295,0.0,3640,4426,0,119,0.9495798319327731,0.32471264367816094,0.0,0.0,0.9495798319327731,0.0,0.0,1.0,0.0,0.0,0.9741379310344828,0,0,119,292,0.2568493150684932,0.13623978201634876,0.0,0.0,0.2568493150684932,0.0,0.0,1.0,0.0,0.0,0.4087193460490463,0,0,292,8185,0.7633475870494808,0.6013882810578607,0.8953296703296704,0.64979665612291,0.9495798319327731,0.8427721748125162,0.9052565313188543,0.09903593339176162,0.8682562941254829,0.7565434696830199,0.17936507936507937,3640,4426,119,0.1274485494668981,0.45742092457420924,1.0869623680588545
simple_pc1_gm_gate_t254,score_all_max,0.05,pc3__le,3.281193089810729,634,8477,0.749085761472219,0.6127047828580001,0.8964285714285715,0.6556710347943967,0.45012165450121655,0.8042888834113877,0.8923739237392374,0.1583904109589041,0.8478628036897492,0.7559260224016671,0.23432552248258393,3640,4426,411,8066,0.7643193652367964,0.542810448413818,0.8964285714285715,0.6556710347943967,0.0,0.8386019018247237,0.9091478696741855,0.0,0.8665515867746647,0.7618797584667892,0.0,3640,4426,0,119,0.957983193277311,0.3261802575107296,0.0,0.0,0.957983193277311,0.0,0.0,1.0,0.0,0.0,0.9785407725321889,0,0,119,292,0.24315068493150685,0.13039485766758493,0.0,0.0,0.24315068493150685,0.0,0.0,1.0,0.0,0.0,0.39118457300275483,0,0,292,8185,0.7671350030543678,0.6051438736273238,0.8964285714285715,0.6556710347943967,0.957983193277311,0.8386019018247237,0.9077259931185486,0.10391978122151321,0.8665515867746647,0.7613800341073068,0.1875,3640,4426,119,0.12186957599801637,0.45012165450121655,1.0867984222789673
simple_pc1_gm_gate_t254,score_core,0.01,pc3__ge,-1.610530736647411,554,8477,0.7453108410994456,0.6112485403563556,0.9057692307692308,0.640533212833258,0.45255474452554745,0.7835076045627376,0.8912291732159698,0.17095588235294118,0.8402140672782875,0.7453661101616932,0.24816544362908605,3640,4426,411,8066,0.7602281180262832,0.536554028763152,0.9057692307692308,0.640533212833258,0.0,0.8173029251363411,0.9057507987220448,0.0,0.8592650508209538,0.7503970354685019,0.0,3640,4426,0,119,0.9831932773109243,0.3305084745762712,0.0,0.0,0.9831932773109243,0.0,0.0,1.0,0.0,0.0,0.9915254237288136,0,0,119,292,0.2363013698630137,0.12742382271468145,0.0,0.0,0.2363013698630137,0.0,0.0,1.0,0.0,0.0,0.38227146814404434,0,0,292,8185,0.7634697617593158,0.6050291392017035,0.9057692307692308,0.640533212833258,0.9831932773109243,0.8173029251363411,0.9051724137931034,0.11481844946025516,0.8592650508209538,0.7501984652024345,0.2056239015817223,3640,4426,119,0.11182742375402926,0.45255474452554745,1.0866291987594778
simple_pc1_gm_gate_t254,score_all_max,0.08,pc3__le,2.1506591515994145,499,8477,0.7597027250206441,0.6205480657583988,0.8994505494505495,0.675101671938545,0.43309002433090027,0.7985365853658537,0.8935406698564593,0.17231364956437561,0.8459948320413436,0.7691119691119691,0.24653739612188366,3640,4426,411,8066,0.7763451524919415,0.5467838891487342,0.8994505494505495,0.675101671938545,0.0,0.8324434274091025,0.9115314215985357,0.0,0.8646507328667635,0.7757009345794392,0.0,3640,4426,0,119,0.9411764705882353,0.32323232323232326,0.0,0.0,0.9411764705882353,0.0,0.0,1.0,0.0,0.0,0.9696969696969697,0,0,119,292,0.22602739726027396,0.12290502793296089,0.0,0.0,0.22602739726027396,0.0,0.0,1.0,0.0,0.0,0.3687150837988827,0,0,292,8185,0.7787416004886989,0.6153030002913442,0.8994505494505495,0.675101671938545,0.9411764705882353,0.8324434274091025,0.9095890410958904,0.11582213029989659,0.8646507328667635,0.7749967578783556,0.20626151012891344,3640,4426,119,0.1060004959087528,0.43309002433090027,1.0863648137137356
simple_pc1_gm_gate_t254,score_core,0.01,pc2__ge,1.9185090159687288,745,8477,0.7395304942786363,0.6077404383419427,0.8895604395604395,0.640533212833258,0.4768856447688564,0.8082875686470294,0.8881578947368421,0.1532447224394058,0.8469788124509547,0.7442898398529798,0.2319526627218935,3640,4426,411,8066,0.7529134639226382,0.5382234524118282,0.8895604395604395,0.640533212833258,0.0,0.840384116273034,0.9057507987220448,0.0,0.8642733217669826,0.7503970354685019,0.0,3640,4426,0,119,0.8907563025210085,0.31407407407407406,0.0,0.0,0.8907563025210085,0.0,0.0,1.0,0.0,0.0,0.9422222222222222,0,0,119,292,0.3082191780821918,0.15706806282722513,0.0,0.0,0.3082191780821918,0.0,0.0,1.0,0.0,0.0,0.4712041884816754,0,0,292,8185,0.7549175320708613,0.5918203456629256,0.8895604395604395,0.640533212833258,0.8907563025210085,0.840384116273034,0.9020044543429844,0.08915054667788057,0.8642733217669826,0.7491082045184304,0.1620795107033639,3640,4426,119,0.13426729481775354,0.4768856447688564,1.086286792038216
simple_pc1_gm_gate_t254,score_core,0.02,qrs_visibility__le,0.2800807397384144,631,8477,0.7450749085761472,0.6103775682562277,0.8936813186813187,0.64979665612291,0.45498783454987834,0.7967180994366887,0.8906782285537318,0.16051502145922747,0.842418749190729,0.7514043109079034,0.23730964467005075,3640,4426,411,8066,0.7598561864616911,0.5393548745503924,0.8936813186813187,0.64979665612291,0.0,0.8304825121266275,0.9069694102806686,0.0,0.8609236469498478,0.7571409767013295,0.0,3640,4426,0,119,0.9663865546218487,0.3276353276353276,0.0,0.0,0.9663865546218487,0.0,0.0,1.0,0.0,0.0,0.9829059829059829,0,0,119,292,0.2465753424657534,0.13186813186813187,0.0,0.0,0.2465753424657534,0.0,0.0,1.0,0.0,0.0,0.3956043956043956,0,0,292,8185,0.7628588882101405,0.6024783859082197,0.8936813186813187,0.64979665612291,0.9663865546218487,0.8304825121266275,0.9058267716535433,0.10521500457456541,0.8609236469498478,0.7567425338771214,0.18976897689768976,3640,4426,119,0.12124969005702951,0.45498783454987834,1.0862649352317448
simple_pc1_gm_gate_t254,score_core,0.02,qrs_visibility__le,0.3732307518330272,631,8477,0.7450749085761472,0.6103775682562277,0.8936813186813187,0.64979665612291,0.45498783454987834,0.7967180994366887,0.8906782285537318,0.16051502145922747,0.842418749190729,0.7514043109079034,0.23730964467005075,3640,4426,411,8066,0.7598561864616911,0.5393548745503924,0.8936813186813187,0.64979665612291,0.0,0.8304825121266275,0.9069694102806686,0.0,0.8609236469498478,0.7571409767013295,0.0,3640,4426,0,119,0.9663865546218487,0.3276353276353276,0.0,0.0,0.9663865546218487,0.0,0.0,1.0,0.0,0.0,0.9829059829059829,0,0,119,292,0.2465753424657534,0.13186813186813187,0.0,0.0,0.2465753424657534,0.0,0.0,1.0,0.0,0.0,0.3956043956043956,0,0,292,8185,0.7628588882101405,0.6024783859082197,0.8936813186813187,0.64979665612291,0.9663865546218487,0.8304825121266275,0.9058267716535433,0.10521500457456541,0.8609236469498478,0.7567425338771214,0.18976897689768976,3640,4426,119,0.12124969005702951,0.45498783454987834,1.0862649352317448
simple_pc1_gm_gate_t254,score_core,0.02,none,,632,8477,0.744956942314498,0.6102774387148019,0.8934065934065935,0.64979665612291,0.45498783454987834,0.7966682998530132,0.8906782285537318,0.16037735849056603,0.8422688422688422,0.7514043109079034,0.23715916296766013,3640,4426,411,8066,0.7597322092734937,0.5393046241377822,0.8934065934065935,0.64979665612291,0.0,0.8304392236976507,0.9069694102806686,0.0,0.860772895712017,0.7571409767013295,0.0,3640,4426,0,119,0.9663865546218487,0.3276353276353276,0.0,0.0,0.9663865546218487,0.0,0.0,1.0,0.0,0.0,0.9829059829059829,0,0,119,292,0.2465753424657534,0.13186813186813187,0.0,0.0,0.2465753424657534,0.0,0.0,1.0,0.0,0.0,0.3956043956043956,0,0,292,8185,0.7627367135003055,0.6023759868347417,0.8934065934065935,0.64979665612291,0.9663865546218487,0.8304392236976507,0.9058267716535433,0.10511882998171847,0.860772895712017,0.7567425338771214,0.18961253091508656,3640,4426,119,0.12137366724522688,0.45498783454987834,1.0861469689700958
simple_pc1_gm_gate_t254,score_all_max,0.05,none,,641,8477,0.7482599976406747,0.6119816243296403,0.8964285714285715,0.6540894713059195,0.45012165450121655,0.8042888834113877,0.8921417565485362,0.1574468085106383,0.8478628036897492,0.7547907704341025,0.23329129886506936,3640,4426,411,8066,0.7634515249194148,0.5424308731634903,0.8964285714285715,0.6540894713059195,0.0,0.8386019018247237,0.9089481946624803,0.0,0.8665515867746647,0.7607410327158061,0.0,3640,4426,0,119,0.957983193277311,0.3261802575107296,0.0,0.0,0.957983193277311,0.0,0.0,1.0,0.0,0.0,0.9785407725321889,0,0,119,292,0.24315068493150685,0.13039485766758493,0.0,0.0,0.24315068493150685,0.0,0.0,1.0,0.0,0.0,0.39118457300275483,0,0,292,8185,0.7662797800855223,0.6044066675700438,0.8964285714285715,0.6540894713059195,0.957983193277311,0.8386019018247237,0.9075235109717869,0.10326086956521739,0.8665515867746647,0.7602415966386554,0.18642681929681112,3640,4426,119,0.12273741631539797,0.45012165450121655,1.0859726584474232
simple_pc1_gm_gate_t254,score_all_max,0.05,qrs_visibility__le,0.2800807397384144,641,8477,0.7482599976406747,0.6119816243296403,0.8964285714285715,0.6540894713059195,0.45012165450121655,0.8042888834113877,0.8921417565485362,0.1574468085106383,0.8478628036897492,0.7547907704341025,0.23329129886506936,3640,4426,411,8066,0.7634515249194148,0.5424308731634903,0.8964285714285715,0.6540894713059195,0.0,0.8386019018247237,0.9089481946624803,0.0,0.8665515867746647,0.7607410327158061,0.0,3640,4426,0,119,0.957983193277311,0.3261802575107296,0.0,0.0,0.957983193277311,0.0,0.0,1.0,0.0,0.0,0.9785407725321889,0,0,119,292,0.24315068493150685,0.13039485766758493,0.0,0.0,0.24315068493150685,0.0,0.0,1.0,0.0,0.0,0.39118457300275483,0,0,292,8185,0.7662797800855223,0.6044066675700438,0.8964285714285715,0.6540894713059195,0.957983193277311,0.8386019018247237,0.9075235109717869,0.10326086956521739,0.8665515867746647,0.7602415966386554,0.18642681929681112,3640,4426,119,0.12273741631539797,0.45012165450121655,1.0859726584474232
simple_pc1_gm_gate_t254,score_all_max,0.05,qrs_visibility__le,0.3732307518330272,641,8477,0.7482599976406747,0.6119816243296403,0.8964285714285715,0.6540894713059195,0.45012165450121655,0.8042888834113877,0.8921417565485362,0.1574468085106383,0.8478628036897492,0.7547907704341025,0.23329129886506936,3640,4426,411,8066,0.7634515249194148,0.5424308731634903,0.8964285714285715,0.6540894713059195,0.0,0.8386019018247237,0.9089481946624803,0.0,0.8665515867746647,0.7607410327158061,0.0,3640,4426,0,119,0.957983193277311,0.3261802575107296,0.0,0.0,0.957983193277311,0.0,0.0,1.0,0.0,0.0,0.9785407725321889,0,0,119,292,0.24315068493150685,0.13039485766758493,0.0,0.0,0.24315068493150685,0.0,0.0,1.0,0.0,0.0,0.39118457300275483,0,0,292,8185,0.7662797800855223,0.6044066675700438,0.8964285714285715,0.6540894713059195,0.957983193277311,0.8386019018247237,0.9075235109717869,0.10326086956521739,0.8665515867746647,0.7602415966386554,0.18642681929681112,3640,4426,119,0.12273741631539797,0.45012165450121655,1.0859726584474232
simple_pc1_gm_gate_t254,score_all_max,0.02,pc2__ge,5.370042063114319,760,8477,0.7418898195116197,0.6088248348703006,0.8903846153846153,0.6448260280162675,0.4720194647201946,0.8151408450704225,0.8899282818833801,0.14992272024729522,0.8511029411764706,0.7478055810297393,0.22756598240469209,3640,4426,411,8066,0.7556409620629804,0.5408878284074575,0.8903846153846153,0.6448260280162675,0.0,0.8475418410041841,0.9083386378103119,0.0,0.8684351554126474,0.7542283298097252,0.0,3640,4426,0,119,0.8907563025210085,0.31407407407407406,0.0,0.0,0.8907563025210085,0.0,0.0,1.0,0.0,0.0,0.9422222222222222,0,0,119,292,0.3013698630136986,0.1543859649122807,0.0,0.0,0.3013698630136986,0.0,0.0,1.0,0.0,0.0,0.4631578947368421,0,0,292,8185,0.7576053756872327,0.593790041471366,0.8903846153846153,0.6448260280162675,0.8907563025210085,0.8475418410041841,0.9045958795562599,0.087893864013267,0.8684351554126474,0.752934969001451,0.16,3640,4426,119,0.13637490701710886,0.4720194647201946,1.0859155569938939
simple_pc1_gm_gate_t254,score_core,0.01,pc2__ge,5.370042063114319,725,8477,0.741417954465023,0.6087894481543761,0.8895604395604395,0.6446000903750565,0.4720194647201946,0.8082875686470294,0.8882316313823163,0.15409054805401112,0.8469788124509547,0.7470542026708562,0.23233532934131737,3640,4426,411,8066,0.7551450533101909,0.5392133676200653,0.8895604395604395,0.6446000903750565,0.0,0.840384116273034,0.906289707750953,0.0,0.8642733217669826,0.7533667810932136,0.0,3640,4426,0,119,0.8907563025210085,0.31407407407407406,0.0,0.0,0.8907563025210085,0.0,0.0,1.0,0.0,0.0,0.9422222222222222,0,0,119,292,0.3013698630136986,0.1543859649122807,0.0,0.0,0.3013698630136986,0.0,0.0,1.0,0.0,0.0,0.4631578947368421,0,0,292,8185,0.7571166768478925,0.5935634421246688,0.8895604395604395,0.6446000903750565,0.8907563025210085,0.840384116273034,0.902562480227776,0.09052092228864218,0.8642733217669826,0.7520759193357058,0.16434108527131783,3640,4426,119,0.13203570543020085,0.4720194647201946,1.0854436919472972
simple_pc1_gm_gate_t254,score_outlier,0.01,pc3__le,2.1506591515994145,343,8477,0.7684322283826825,0.629625944387175,0.9107142857142857,0.6834613646633529,0.4233576642335766,0.788534728829686,0.89075382803298,0.19840364880273662,0.8452320244773075,0.7734594732804909,0.2701863354037267,3640,4426,411,8066,0.7860153731713365,0.5479974818071048,0.9107142857142857,0.6834613646633529,0.0,0.819935691318328,0.911144578313253,0.0,0.8629441624365483,0.7810482829847664,0.0,3640,4426,0,119,0.8907563025210085,0.31407407407407406,0.0,0.0,0.8907563025210085,0.0,0.0,1.0,0.0,0.0,0.9422222222222222,0,0,119,292,0.2328767123287671,0.1259259259259259,0.0,0.0,0.2328767123287671,0.0,0.0,1.0,0.0,0.0,0.37777777777777777,0,0,292,8185,0.7875381795968235,0.623710698490311,0.9107142857142857,0.6834613646633529,0.8907563025210085,0.819935691318328,0.9075907590759076,0.13102595797280595,0.8629441624365483,0.779739657172316,0.22844827586206898,3640,4426,119,0.0871559633027523,0.4233576642335766,1.0851523630919007
simple_pc1_gm_gate_t254,score_all_max,0.1,pc3__le,2.1506591515994145,472,8477,0.7604105225905391,0.6208922264319514,0.9008241758241758,0.6757794848621781,0.4282238442822384,0.7952946883337376,0.8933691756272402,0.1749502982107356,0.8447765039288935,0.7694880370465654,0.24841213832039521,3640,4426,411,8066,0.7773369699975204,0.5465467684832569,0.9008241758241758,0.6757794848621781,0.0,0.8290771175726928,0.9116123133191101,0.0,0.8634628044766294,0.7761775009731413,0.0,3640,4426,0,119,0.9411764705882353,0.32323232323232326,0.0,0.0,0.9411764705882353,0.0,0.0,1.0,0.0,0.0,0.9696969696969697,0,0,119,292,0.2191780821917808,0.1198501872659176,0.0,0.0,0.2191780821917808,0.0,0.0,1.0,0.0,0.0,0.3595505617977528,0,0,292,8185,0.7797189981673793,0.6166858511871025,0.9008241758241758,0.6757794848621781,0.9411764705882353,0.8290771175726928,0.9096715328467153,0.11889596602972399,0.8634628044766294,0.7754731656728027,0.2111215834118756,3640,4426,119,0.1029010662038185,0.4282238442822384,1.084342051006325
simple_pc1_gm_gate_t254,score_core,0.01,qrs_visibility__ge,0.018109057926941858,486,8477,0.7483779639023239,0.6138678078235597,0.8906593406593407,0.6597379123361952,0.44282238442822386,0.7739317259489138,0.8935128518971848,0.1784313725490196,0.8282028356111891,0.7590330127371978,0.2543675751222921,3640,4426,411,8066,0.7639474336722043,0.5371824371445296,0.8906593406593407,0.6597379123361952,0.0,0.8078744081734364,0.9082426127527217,0.0,0.847249444662224,0.764297866771365,0.0,3640,4426,0,119,0.9831932773109243,0.3305084745762712,0.0,0.0,0.9831932773109243,0.0,0.0,1.0,0.0,0.0,0.9915254237288136,0,0,119,292,0.2226027397260274,0.12138188608776844,0.0,0.0,0.2226027397260274,0.0,0.0,1.0,0.0,0.0,0.3641456582633053,0,0,292,8185,0.7671350030543678,0.6097414689879578,0.8906593406593407,0.6597379123361952,0.9831932773109243,0.8078744081734364,0.9076779608330743,0.1225130890052356,0.847249444662224,0.7640978673295826,0.21787709497206703,3640,4426,119,0.10389288370939748,0.44282238442822386,1.084235201007745
simple_pc1_gm_gate_t254,score_all_max,0.01,pc1__le,-3.4616467709066274,449,8477,0.7647752742715583,0.6248780932867555,0.8879120879120879,0.6947582467239042,0.4282238442822384,0.8,0.8902721482339316,0.1790437436419125,0.8416666666666667,0.7804568527918782,0.25251076040172166,3640,4426,411,8066,0.7819241259608232,0.549137678986103,0.8879120879120879,0.6947582467239042,0.0,0.8310619696580098,0.9124629080118695,0.0,0.8585469517864258,0.7888660851718831,0.0,3640,4426,0,119,0.8907563025210085,0.31407407407407406,0.0,0.0,0.8907563025210085,0.0,0.0,1.0,0.0,0.0,0.9422222222222222,0,0,119,292,0.23972602739726026,0.1289134438305709,0.0,0.0,0.23972602739726026,0.0,0.0,1.0,0.0,0.0,0.3867403314917127,0,0,292,8185,0.7835064141722663,0.6171753773468583,0.8879120879120879,0.6947582467239042,0.8907563025210085,0.8310619696580098,0.9089565474430978,0.11610076670317634,0.8585469517864258,0.7875528236650019,0.2054263565891473,3640,4426,119,0.10004959087527895,0.4282238442822384,1.0842259692580822
simple_pc1_gm_gate_t254,score_all_max,0.03,pc3__ge,-2.4479177605053817,626,8477,0.7459006724076914,0.6099719782155391,0.8983516483516484,0.6482150926344329,0.44768856447688565,0.7967836257309941,0.8929349517584811,0.15862068965517243,0.8445247933884298,0.7511454378845399,0.23424570337364736,3640,4426,411,8066,0.7610959583436647,0.5401004087901017,0.8983516483516484,0.6482150926344329,0.0,0.8316378433367243,0.9084863837872071,0.0,0.8637083993660856,0.7565928270042194,0.0,3640,4426,0,119,0.9663865546218487,0.3276353276353276,0.0,0.0,0.9663865546218487,0.0,0.0,1.0,0.0,0.0,0.9829059829059829,0,0,119,292,0.2363013698630137,0.12742382271468145,0.0,0.0,0.2363013698630137,0.0,0.0,1.0,0.0,0.0,0.38227146814404434,0,0,292,8185,0.7640806353084911,0.6033283448351728,0.8983516483516484,0.6482150926344329,0.9663865546218487,0.8316378433367243,0.907337128399747,0.10540788267644363,0.8637083993660856,0.7561939905113337,0.19008264462809918,3640,4426,119,0.12100173568063477,0.44768856447688565,1.0829948586473308
simple_pc1_gm_gate_t254,score_outlier,0.01,pc2__ge,5.370042063114319,381,8477,0.7644213754866108,0.6258148445968736,0.9107142857142857,0.675553547220967,0.4257907542579075,0.7889100428367444,0.8898809523809523,0.1912568306010929,0.8454475899005356,0.7680452093501156,0.26395173453996984,3640,4426,411,8066,0.7816761715844285,0.5462281185210154,0.9107142857142857,0.675553547220967,0.0,0.8203414996288048,0.9101978691019786,0.0,0.8631688582215857,0.7755154973414603,0.0,3640,4426,0,119,0.8907563025210085,0.31407407407407406,0.0,0.0,0.8907563025210085,0.0,0.0,1.0,0.0,0.0,0.9422222222222222,0,0,119,292,0.2363013698630137,0.12742382271468145,0.0,0.0,0.2363013698630137,0.0,0.0,1.0,0.0,0.0,0.38227146814404434,0,0,292,8185,0.7832620647525962,0.6190227437157004,0.9107142857142857,0.675553547220967,0.8907563025210085,0.8203414996288048,0.9066100667070952,0.12529550827423167,0.8631688582215857,0.7742102537545313,0.21968911917098446,3640,4426,119,0.09174311926605505,0.4257907542579075,1.0825067903344818
simple_pc1_gm_gate_t254,score_outlier,0.01,pc3__le,3.281193089810729,381,8477,0.7644213754866108,0.6258148445968736,0.9107142857142857,0.675553547220967,0.4257907542579075,0.7889100428367444,0.8898809523809523,0.1912568306010929,0.8454475899005356,0.7680452093501156,0.26395173453996984,3640,4426,411,8066,0.7816761715844285,0.5462281185210154,0.9107142857142857,0.675553547220967,0.0,0.8203414996288048,0.9101978691019786,0.0,0.8631688582215857,0.7755154973414603,0.0,3640,4426,0,119,0.8907563025210085,0.31407407407407406,0.0,0.0,0.8907563025210085,0.0,0.0,1.0,0.0,0.0,0.9422222222222222,0,0,119,292,0.2363013698630137,0.12742382271468145,0.0,0.0,0.2363013698630137,0.0,0.0,1.0,0.0,0.0,0.38227146814404434,0,0,292,8185,0.7832620647525962,0.6190227437157004,0.9107142857142857,0.675553547220967,0.8907563025210085,0.8203414996288048,0.9066100667070952,0.12529550827423167,0.8631688582215857,0.7742102537545313,0.21968911917098446,3640,4426,119,0.09174311926605505,0.4257907542579075,1.0825067903344818
simple_pc1_gm_gate_t254,score_outlier,0.01,pc2__ge,-1.0634046292314407,382,8477,0.7643034092249616,0.6256957926434286,0.9107142857142857,0.675327609579756,0.4257907542579075,0.7889100428367444,0.8898481690979458,0.19104803493449782,0.8454475899005356,0.7678869621066153,0.26375282592313487,3640,4426,411,8066,0.7815521943962311,0.5461751792861403,0.9107142857142857,0.675327609579756,0.0,0.8203414996288048,0.9101705237515225,0.0,0.8631688582215857,0.7753566796368353,0.0,3640,4426,0,119,0.8907563025210085,0.31407407407407406,0.0,0.0,0.8907563025210085,0.0,0.0,1.0,0.0,0.0,0.9422222222222222,0,0,119,292,0.2363013698630137,0.12742382271468145,0.0,0.0,0.2363013698630137,0.0,0.0,1.0,0.0,0.0,0.38227146814404434,0,0,292,8185,0.7831398900427612,0.6188940301073286,0.9107142857142857,0.675327609579756,0.8907563025210085,0.8203414996288048,0.9065817409766455,0.12514757969303425,0.8631688582215857,0.7740515343778325,0.2194616977225673,3640,4426,119,0.09186709645425242,0.4257907542579075,1.0823888240728325
simple_pc1_gm_gate_t254,score_outlier,0.01,pc2__ge,1.9185090159687288,382,8477,0.7643034092249616,0.6256957926434286,0.9107142857142857,0.675327609579756,0.4257907542579075,0.7889100428367444,0.8898481690979458,0.19104803493449782,0.8454475899005356,0.7678869621066153,0.26375282592313487,3640,4426,411,8066,0.7815521943962311,0.5461751792861403,0.9107142857142857,0.675327609579756,0.0,0.8203414996288048,0.9101705237515225,0.0,0.8631688582215857,0.7753566796368353,0.0,3640,4426,0,119,0.8907563025210085,0.31407407407407406,0.0,0.0,0.8907563025210085,0.0,0.0,1.0,0.0,0.0,0.9422222222222222,0,0,119,292,0.2363013698630137,0.12742382271468145,0.0,0.0,0.2363013698630137,0.0,0.0,1.0,0.0,0.0,0.38227146814404434,0,0,292,8185,0.7831398900427612,0.6188940301073286,0.9107142857142857,0.675327609579756,0.8907563025210085,0.8203414996288048,0.9065817409766455,0.12514757969303425,0.8631688582215857,0.7740515343778325,0.2194616977225673,3640,4426,119,0.09186709645425242,0.4257907542579075,1.0823888240728325
simple_pc1_gm_gate_t254,score_all_max,0.01,pc2__ge,10.616705266871826,750,8477,0.7450749085761472,0.6099914849985122,0.8879120879120879,0.6540894713059195,0.45985401459854014,0.8230201171377642,0.8864053888548683,0.14719626168224298,0.8542354962336461,0.7527301092043682,0.22300884955752212,3640,4426,411,8066,0.7596082320852963,0.5437610784106123,0.8879120879120879,0.6540894713059195,0.0,0.8548003173763554,0.9075235109717869,0.0,0.8710416385931815,0.7602415966386554,0.0,3640,4426,0,119,0.8907563025210085,0.31407407407407406,0.0,0.0,0.8907563025210085,0.0,0.0,1.0,0.0,0.0,0.9422222222222222,0,0,119,292,0.2842465753424658,0.14755555555555555,0.0,0.0,0.2842465753424658,0.0,0.0,1.0,0.0,0.0,0.44266666666666665,0,0,292,8185,0.7615149664019548,0.596864608607114,0.8879120879120879,0.6540894713059195,0.8907563025210085,0.8548003173763554,0.9038401498595067,0.08825978351373855,0.8710416385931815,0.7589461266220999,0.1606060606060606,3640,4426,119,0.135755021076122,0.45985401459854014,1.0822742453651573
simple_pc1_gm_gate_t254,score_outlier,0.01,pc1__le,0.15713262094765446,383,8477,0.7641854429633125,0.6255768269904999,0.9107142857142857,0.675101671938545,0.4257907542579075,0.7889100428367444,0.889815366289458,0.19083969465648856,0.8454475899005356,0.7677286742034943,0.2635542168674699,3640,4426,411,8066,0.7814282172080337,0.5461222263168679,0.9107142857142857,0.675101671938545,0.0,0.8203414996288048,0.9101431617423089,0.0,0.8631688582215857,0.775197820729018,0.0,3640,4426,0,119,0.8907563025210085,0.31407407407407406,0.0,0.0,0.8907563025210085,0.0,0.0,1.0,0.0,0.0,0.9422222222222222,0,0,119,292,0.2363013698630137,0.12742382271468145,0.0,0.0,0.2363013698630137,0.0,0.0,1.0,0.0,0.0,0.38227146814404434,0,0,292,8185,0.7830177153329261,0.6187654595844833,0.9107142857142857,0.675101671938545,0.8907563025210085,0.8203414996288048,0.9065533980582524,0.125,0.8631688582215857,0.7738927738927739,0.21923474663908996,3640,4426,119,0.0919910736424498,0.4257907542579075,1.0822708578111835
simple_pc1_gm_gate_t254,score_outlier,0.01,qrs_visibility__le,0.2800807397384144,384,8477,0.7640674767016633,0.6254579474074601,0.9107142857142857,0.6748757342973339,0.4257907542579075,0.7889100428367444,0.8897825439380399,0.1906318082788671,0.8454475899005356,0.7675703456250803,0.2633559066967645,3640,4426,411,8066,0.7813042400198363,0.5460692596078526,0.9107142857142857,0.6748757342973339,0.0,0.8203414996288048,0.9101157830591103,0.0,0.8631688582215857,0.775038920601972,0.0,3640,4426,0,119,0.8907563025210085,0.31407407407407406,0.0,0.0,0.8907563025210085,0.0,0.0,1.0,0.0,0.0,0.9422222222222222,0,0,119,292,0.2363013698630137,0.12742382271468145,0.0,0.0,0.2363013698630137,0.0,0.0,1.0,0.0,0.0,0.38227146814404434,0,0,292,8185,0.782895540623091,0.6186370316559263,0.9107142857142857,0.6748757342973339,0.8907563025210085,0.8203414996288048,0.906525037936267,0.1248527679623086,0.8631688582215857,0.773733972283383,0.2190082644628099,3640,4426,119,0.09211505083064717,0.4257907542579075,1.0821528915495342
simple_pc1_gm_gate_t254,score_outlier,0.01,qrs_visibility__le,0.3732307518330272,384,8477,0.7640674767016633,0.6254579474074601,0.9107142857142857,0.6748757342973339,0.4257907542579075,0.7889100428367444,0.8897825439380399,0.1906318082788671,0.8454475899005356,0.7675703456250803,0.2633559066967645,3640,4426,411,8066,0.7813042400198363,0.5460692596078526,0.9107142857142857,0.6748757342973339,0.0,0.8203414996288048,0.9101157830591103,0.0,0.8631688582215857,0.775038920601972,0.0,3640,4426,0,119,0.8907563025210085,0.31407407407407406,0.0,0.0,0.8907563025210085,0.0,0.0,1.0,0.0,0.0,0.9422222222222222,0,0,119,292,0.2363013698630137,0.12742382271468145,0.0,0.0,0.2363013698630137,0.0,0.0,1.0,0.0,0.0,0.38227146814404434,0,0,292,8185,0.782895540623091,0.6186370316559263,0.9107142857142857,0.6748757342973339,0.8907563025210085,0.8203414996288048,0.906525037936267,0.1248527679623086,0.8631688582215857,0.773733972283383,0.2190082644628099,3640,4426,119,0.09211505083064717,0.4257907542579075,1.0821528915495342
simple_pc1_gm_gate_t254,score_all_max,0.03,pc1__ge,-5.359154835604749,627,8477,0.744956942314498,0.6092698701004302,0.8961538461538462,0.6482150926344329,0.44768856447688565,0.7950280282719961,0.8929349517584811,0.15848406546080965,0.8425674803047914,0.7511454378845399,0.2340966921119593,3640,4426,411,8066,0.7601041408380858,0.5394339934508406,0.8961538461538462,0.6482150926344329,0.0,0.829814296616637,0.9084863837872071,0.0,0.8617091533483028,0.7565928270042194,0.0,3640,4426,0,119,0.9663865546218487,0.3276353276353276,0.0,0.0,0.9663865546218487,0.0,0.0,1.0,0.0,0.0,0.9829059829059829,0,0,119,292,0.2363013698630137,0.12742382271468145,0.0,0.0,0.2363013698630137,0.0,0.0,1.0,0.0,0.0,0.38227146814404434,0,0,292,8185,0.7631032376298106,0.6026096083715992,0.8961538461538462,0.6482150926344329,0.9663865546218487,0.829814296616637,0.907337128399747,0.10531135531135531,0.8617091533483028,0.7561939905113337,0.18992568125516102,3640,4426,119,0.12112571286883214,0.44768856447688565,1.0820511285541374
simple_pc1_gm_gate_t254,score_outlier,0.01,none,,385,8477,0.7639495104400141,0.6253391536643568,0.9107142857142857,0.6746497966561229,0.4257907542579075,0.7889100428367444,0.8897497020262217,0.19042437431991294,0.8454475899005356,0.7674119763556926,0.2631578947368421,3640,4426,411,8066,0.781180262831639,0.5460162791537461,0.9107142857142857,0.6746497966561229,0.0,0.8203414996288048,0.9100883876866809,0.0,0.8631688582215857,0.7748799792396522,0.0,3640,4426,0,119,0.8907563025210085,0.31407407407407406,0.0,0.0,0.8907563025210085,0.0,0.0,1.0,0.0,0.0,0.9422222222222222,0,0,119,292,0.2363013698630137,0.12742382271468145,0.0,0.0,0.2363013698630137,0.0,0.0,1.0,0.0,0.0,0.38227146814404434,0,0,292,8185,0.782773365913256,0.6185087458324222,0.9107142857142857,0.6746497966561229,0.8907563025210085,0.8203414996288048,0.9064966605950212,0.12470588235294118,0.8631688582215857,0.7735751295336788,0.21878224974200206,3640,4426,119,0.09223902801884454,0.4257907542579075,1.0820349252878851
simple_pc1_gm_gate_t254,score_outlier,0.01,pc1__le,-0.7734152380448813,372,8477,0.765247139318155,0.6262985082213091,0.9107142857142857,0.6773610483506552,0.4233576642335766,0.7889100428367444,0.8898783021668151,0.19205298013245034,0.8454475899005356,0.7692110327132777,0.2642369020501139,3640,4426,411,8066,0.7826679890900075,0.5466511386022551,0.9107142857142857,0.6773610483506552,0.0,0.8203414996288048,0.9104160340115396,0.0,0.8631688582215857,0.7767845575851794,0.0,3640,4426,0,119,0.8907563025210085,0.31407407407407406,0.0,0.0,0.8907563025210085,0.0,0.0,1.0,0.0,0.0,0.9422222222222222,0,0,119,292,0.2328767123287671,0.1259259259259259,0.0,0.0,0.2328767123287671,0.0,0.0,1.0,0.0,0.0,0.37777777777777777,0,0,292,8185,0.7842394624312767,0.6200576632795668,0.9107142857142857,0.6773610483506552,0.8907563025210085,0.8203414996288048,0.9068360556563824,0.12649164677804295,0.8631688582215857,0.7754785307811691,0.22152560083594566,3640,4426,119,0.09075130176047608,0.4233576642335766,1.0819672740273731
simple_pc1_gm_gate_t254,score_all_max,0.02,pc3__ge,-1.610530736647411,564,8477,0.7454288073610947,0.6100880147579566,0.9052197802197802,0.6418888386805242,0.44525547445255476,0.7848975702715579,0.8931153725243635,0.16666666666666666,0.8407757080887982,0.7469436045747337,0.24254473161033796,3640,4426,411,8066,0.7607240267790727,0.5373911539282997,0.9052197802197802,0.6418888386805242,0.0,0.8192441571357534,0.9079578139980825,0.0,0.8600887496737144,0.7520847121111847,0.0,3640,4426,0,119,0.9747899159663865,0.32907801418439714,0.0,0.0,0.9747899159663865,0.0,0.0,1.0,0.0,0.0,0.9872340425531915,0,0,119,292,0.22945205479452055,0.12441968430826371,0.0,0.0,0.22945205479452055,0.0,0.0,1.0,0.0,0.0,0.3732590529247911,0,0,292,8185,0.763836285888821,0.6045380223101359,0.9052197802197802,0.6418888386805242,0.9747899159663865,0.8192441571357534,0.907088122605364,0.11251212415130941,0.8600887496737144,0.7517861868219106,0.20173913043478262,3640,4426,119,0.1134391272005951,0.44525547445255476,1.081904519033625
simple_pc1_gm_gate_t254,score_outlier,0.02,pc3__le,2.1506591515994145,309,8477,0.7689040934292792,0.6298586657692089,0.9120879120879121,0.683913239945775,0.41605839416058393,0.7839433293978748,0.8905560458958517,0.20284697508896798,0.8431746031746031,0.7736741214057508,0.2727272727272727,3640,4426,411,8066,0.786883213488718,0.5474529276640169,0.9120879120879121,0.683913239945775,0.0,0.8153241650294696,0.911198073449729,0.0,0.8609958506224067,0.7813629323696438,0.0,3640,4426,0,119,0.8907563025210085,0.31407407407407406,0.0,0.0,0.8907563025210085,0.0,0.0,1.0,0.0,0.0,0.9422222222222222,0,0,119,292,0.2226027397260274,0.12138188608776844,0.0,0.0,0.2226027397260274,0.0,0.0,1.0,0.0,0.0,0.3641456582633053,0,0,292,8185,0.7883934025656689,0.6257977780460299,0.9120879120879121,0.683913239945775,0.8907563025210085,0.8153241650294696,0.9076461769115443,0.13624678663239073,0.8609958506224067,0.7800541167375338,0.23634336677814938,3640,4426,119,0.08331267046863378,0.41605839416058393,1.081528387722539
simple_pc1_gm_gate_t254,score_all_max,0.05,pc2__ge,-1.0634046292314407,639,8477,0.7480240651173764,0.61117248025607,0.8964285714285715,0.6540894713059195,0.44525547445255476,0.8042888834113877,0.8915922389898367,0.15601023017902813,0.8478628036897492,0.7545940310178548,0.23106060606060605,3640,4426,411,8066,0.7634515249194148,0.5424308731634903,0.8964285714285715,0.6540894713059195,0.0,0.8386019018247237,0.9089481946624803,0.0,0.8665515867746647,0.7607410327158061,0.0,3640,4426,0,119,0.9411764705882353,0.32323232323232326,0.0,0.0,0.9411764705882353,0.0,0.0,1.0,0.0,0.0,0.9696969696969697,0,0,119,292,0.24315068493150685,0.13039485766758493,0.0,0.0,0.24315068493150685,0.0,0.0,1.0,0.0,0.0,0.39118457300275483,0,0,292,8185,0.7660354306658522,0.6033499253355474,0.8964285714285715,0.6540894713059195,0.9411764705882353,0.8386019018247237,0.9069548872180451,0.10163339382940109,0.8665515867746647,0.7600420057757942,0.18345618345618345,3640,4426,119,0.12273741631539797,0.44525547445255476,1.0815125545037318
simple_pc1_gm_gate_t254,score_outlier,0.01,qrs_visibility__le,0.1065758014715877,383,8477,0.7639495104400141,0.6249891731892724,0.9107142857142857,0.6748757342973339,0.4233576642335766,0.7889100428367444,0.8895175699821323,0.18974918211559433,0.8454475899005356,0.7674717368961973,0.2620481927710843,3640,4426,411,8066,0.7813042400198363,0.5460692596078526,0.9107142857142857,0.6748757342973339,0.0,0.8203414996288048,0.9101157830591103,0.0,0.8631688582215857,0.775038920601972,0.0,3640,4426,0,119,0.8907563025210085,0.31407407407407406,0.0,0.0,0.8907563025210085,0.0,0.0,1.0,0.0,0.0,0.9422222222222222,0,0,119,292,0.2328767123287671,0.1259259259259259,0.0,0.0,0.2328767123287671,0.0,0.0,1.0,0.0,0.0,0.37777777777777777,0,0,292,8185,0.782895540623091,0.6186370316559263,0.9107142857142857,0.6748757342973339,0.8907563025210085,0.8203414996288048,0.906525037936267,0.1248527679623086,0.8631688582215857,0.773733972283383,0.2190082644628099,3640,4426,119,0.09211505083064717,0.4233576642335766,1.0806696451492321
simple_pc1_gm_gate_t254,score_outlier,0.01,qrs_visibility__le,0.0524517835345784,359,8477,0.7651291730565059,0.6261873752828669,0.9118131868131868,0.6764572977858111,0.4209245742092457,0.7868658131816026,0.8894830659536542,0.1937290033594625,0.8447442097225757,0.7684804928131417,0.26533742331288346,3640,4426,411,8066,0.7826679890900075,0.5461880946508998,0.9118131868131868,0.6764572977858111,0.0,0.8180921863445896,0.9103070842201277,0.0,0.8624139275042224,0.776150356448477,0.0,3640,4426,0,119,0.8907563025210085,0.31407407407407406,0.0,0.0,0.8907563025210085,0.0,0.0,1.0,0.0,0.0,0.9422222222222222,0,0,119,292,0.22945205479452055,0.12441968430826371,0.0,0.0,0.22945205479452055,0.0,0.0,1.0,0.0,0.0,0.3732590529247911,0,0,292,8185,0.7842394624312767,0.620532424113247,0.9118131868131868,0.6764572977858111,0.8907563025210085,0.8180921863445896,0.9067231980617807,0.12832929782082325,0.8624139275042224,0.7748447204968945,0.22433862433862434,3640,4426,119,0.08926357550210762,0.4209245742092457,1.0804840276270713
simple_pc1_gm_gate_t254,score_outlier,0.01,pc3__le,0.0402656504923967,252,8477,0.772914946325351,0.6332825392488305,0.9107142857142857,0.6936285585178491,0.40632603406326034,0.7809187279151943,0.8908879860708068,0.21246819338422393,0.8408370323398858,0.779979674796748,0.27903091060985796,3640,4426,411,8066,0.7915943466402182,0.5488915596732308,0.9107142857142857,0.6936285585178491,0.0,0.8121019108280255,0.912332838038633,0.0,0.8585858585858586,0.7880888204338339,0.0,3640,4426,0,119,0.8907563025210085,0.31407407407407406,0.0,0.0,0.8907563025210085,0.0,0.0,1.0,0.0,0.0,0.9422222222222222,0,0,119,292,0.2089041095890411,0.11520302171860246,0.0,0.0,0.2089041095890411,0.0,0.0,1.0,0.0,0.0,0.34560906515580736,0,0,292,8185,0.7930360415394013,0.6321822350034885,0.9107142857142857,0.6936285585178491,0.8907563025210085,0.8121019108280255,0.9088217880402605,0.14620689655172414,0.8585858585858586,0.7867760123013839,0.25118483412322273,3640,4426,119,0.07674187949417308,0.40632603406326034,1.0800781200639995
simple_pc1_gm_gate_t254,score_core,0.02,pc2__ge,-1.0634046292314407,629,8477,0.7446030435295505,0.6090593434195709,0.8934065934065935,0.64979665612291,0.44768856447688565,0.7966682998530132,0.8898514851485149,0.1582115219260533,0.8422688422688422,0.751109950378689,0.2337992376111817,3640,4426,411,8066,0.7597322092734937,0.5393046241377822,0.8934065934065935,0.64979665612291,0.0,0.8304392236976507,0.9069694102806686,0.0,0.860772895712017,0.7571409767013295,0.0,3640,4426,0,119,0.9411764705882353,0.32323232323232326,0.0,0.0,0.9411764705882353,0.0,0.0,1.0,0.0,0.0,0.9696969696969697,0,0,119,292,0.2465753424657534,0.13186813186813187,0.0,0.0,0.2465753424657534,0.0,0.0,1.0,0.0,0.0,0.3956043956043956,0,0,292,8185,0.7623701893708003,0.6007802798361509,0.8934065934065935,0.64979665612291,0.9411764705882353,0.8304392236976507,0.9049716803020768,0.10265811182401467,0.860772895712017,0.7564439768542872,0.18512396694214875,3640,4426,119,0.12137366724522688,0.44768856447688565,1.0794568130545588
simple_pc1_gm_gate_t254,score_core,0.02,qrs_visibility__le,0.1065758014715877,607,8477,0.7464905037159373,0.6101090971205969,0.8956043956043956,0.6520560325350203,0.44282238442822386,0.7966764418377321,0.8896424167694205,0.15950920245398773,0.8432488360062079,0.752542372881356,0.2345360824742268,3640,4426,411,8066,0.7619637986610464,0.5401749155291403,0.8956043956043956,0.6520560325350203,0.0,0.8303616912888436,0.9072618673373153,0.0,0.8617499339148824,0.7587748126725384,0.0,3640,4426,0,119,0.9495798319327731,0.32471264367816094,0.0,0.0,0.9495798319327731,0.0,0.0,1.0,0.0,0.0,0.9741379310344828,0,0,119,292,0.2363013698630137,0.12742382271468145,0.0,0.0,0.2363013698630137,0.0,0.0,1.0,0.0,0.0,0.38227146814404434,0,0,292,8185,0.7646915088576665,0.603227747962998,0.8956043956043956,0.6520560325350203,0.9495798319327731,0.8303616912888436,0.9055538123627236,0.10541044776119403,0.8617499339148824,0.7581768028372521,0.1897565071368598,3640,4426,119,0.11889412348127945,0.44282238442822386,1.0793605185351836
simple_pc1_gm_gate_t254,score_core,0.01,pc2__le,14.810379664891448,480,8477,0.7434233809130588,0.610178559923933,0.8958791208791209,0.6459557162223226,0.44282238442822386,0.7660324171952079,0.8917654398003743,0.1794871794871795,0.8258832468025833,0.7492138364779874,0.2554385964912281,3640,4426,411,8066,0.7587403917679147,0.5330574049516726,0.8958791208791209,0.6459557162223226,0.0,0.799264705882353,0.9064679771718452,0.0,0.8448186528497409,0.754353562005277,0.0,3640,4426,0,119,0.9831932773109243,0.3305084745762712,0.0,0.0,0.9831932773109243,0.0,0.0,1.0,0.0,0.0,0.9915254237288136,0,0,119,292,0.2226027397260274,0.12138188608776844,0.0,0.0,0.2226027397260274,0.0,0.0,1.0,0.0,0.0,0.3641456582633053,0,0,292,8185,0.762003665241295,0.6060247843580348,0.8958791208791209,0.6459557162223226,0.9831932773109243,0.799264705882353,0.905893536121673,0.1232876712328767,0.8448186528497409,0.7541545766288579,0.21910112359550563,3640,4426,119,0.10314902058021325,0.44282238442822386,1.0792806180184797
simple_pc1_gm_gate_t254,score_outlier,0.02,pc3__le,3.281193089810729,344,8477,0.765247139318155,0.6263331696210956,0.9120879120879121,0.6766832354270221,0.41849148418491483,0.7843137254901961,0.8897801544860369,0.1958997722095672,0.843388797154833,0.7687371663244353,0.26687354538401864,3640,4426,411,8066,0.7829159434664021,0.5458427214089813,0.9120879120879121,0.6766832354270221,0.0,0.8157248157248157,0.9103343465045592,0.0,0.8612191958495461,0.7763089683773976,0.0,3640,4426,0,119,0.8907563025210085,0.31407407407407406,0.0,0.0,0.8907563025210085,0.0,0.0,1.0,0.0,0.0,0.9422222222222222,0,0,119,292,0.22602739726027396,0.12290502793296089,0.0,0.0,0.22602739726027396,0.0,0.0,1.0,0.0,0.0,0.3687150837988827,0,0,292,8185,0.7844838118509468,0.6213115226357385,0.9120879120879121,0.6766832354270221,0.8907563025210085,0.8157248157248157,0.906751438086588,0.13054187192118227,0.8612191958495461,0.7750032345710959,0.22771213748657357,3640,4426,119,0.08752789486734441,0.41849148418491483,1.0792367137500676
simple_pc1_gm_gate_t254,score_outlier,0.02,pc2__ge,5.370042063114319,345,8477,0.7651291730565059,0.6262115311955377,0.9120879120879121,0.6764572977858111,0.41849148418491483,0.7843137254901961,0.8897473997028231,0.1956769055745165,0.843388797154833,0.7685791297651136,0.26666666666666666,3640,4426,411,8066,0.7827919662782048,0.5457898507660076,0.9120879120879121,0.6764572977858111,0.0,0.8157248157248157,0.9103070842201277,0.0,0.8612191958495461,0.776150356448477,0.0,3640,4426,0,119,0.8907563025210085,0.31407407407407406,0.0,0.0,0.8907563025210085,0.0,0.0,1.0,0.0,0.0,0.9422222222222222,0,0,119,292,0.22602739726027396,0.12290502793296089,0.0,0.0,0.22602739726027396,0.0,0.0,1.0,0.0,0.0,0.3687150837988827,0,0,292,8185,0.7843616371411118,0.6211772425017462,0.9120879120879121,0.6764572977858111,0.8907563025210085,0.8157248157248157,0.9067231980617807,0.13038130381303814,0.8612191958495461,0.7748447204968945,0.22746781115879827,3640,4426,119,0.08765187205554179,0.41849148418491483,1.0791187474884185
simple_pc1_gm_gate_t254,score_core,0.03,pc3__le,2.1506591515994145,478,8477,0.7565176359561165,0.6175034537196719,0.8961538461538462,0.6723904202440126,0.4257907542579075,0.7898305084745763,0.8923538230884558,0.17292490118577075,0.8396396396396396,0.7669114804793197,0.24595924104005623,3640,4426,411,8066,0.7733696999752045,0.5439784355040836,0.8961538461538462,0.6723904202440126,0.0,0.8241536129358262,0.9098135126872516,0.0,0.8586470123716767,0.7732882941405742,0.0,3640,4426,0,119,0.9411764705882353,0.32323232323232326,0.0,0.0,0.9411764705882353,0.0,0.0,1.0,0.0,0.0,0.9696969696969697,0,0,119,292,0.21575342465753425,0.11830985915492959,0.0,0.0,0.21575342465753425,0.0,0.0,1.0,0.0,0.0,0.35492957746478876,0,0,292,8185,0.7758094074526573,0.613656836622988,0.8961538461538462,0.6723904202440126,0.9411764705882353,0.8241536129358262,0.9078706528370958,0.11801896733403583,0.8586470123716767,0.7725856697819314,0.20973782771535582,3640,4426,119,0.1037689065212001,0.4257907542579075,1.0790838842332495
simple_pc1_gm_gate_t254,score_outlier,0.02,pc1__le,0.15713262094765446,346,8477,0.7650112067948567,0.6260899860764931,0.9120879120879121,0.6762313601446001,0.41849148418491483,0.7843137254901961,0.8897146254458977,0.19545454545454546,0.843388797154833,0.7684210526315789,0.2664601084430674,3640,4426,411,8066,0.7826679890900075,0.5457369664153228,0.9120879120879121,0.6762313601446001,0.0,0.8157248157248157,0.9102798053527981,0.0,0.8612191958495461,0.7759917033964221,0.0,3640,4426,0,119,0.8907563025210085,0.31407407407407406,0.0,0.0,0.8907563025210085,0.0,0.0,1.0,0.0,0.0,0.9422222222222222,0,0,119,292,0.22602739726027396,0.12290502793296089,0.0,0.0,0.22602739726027396,0.0,0.0,1.0,0.0,0.0,0.3687150837988827,0,0,292,8185,0.7842394624312767,0.6210431232727033,0.9120879120879121,0.6762313601446001,0.8907563025210085,0.8157248157248157,0.9066949409269918,0.13022113022113022,0.8612191958495461,0.7746861653940728,0.22722400857449088,3640,4426,119,0.08777584924373916,0.41849148418491483,1.0790007812267692
simple_pc1_gm_gate_t254,score_outlier,0.02,pc2__ge,-1.0634046292314407,346,8477,0.7650112067948567,0.6260899860764931,0.9120879120879121,0.6762313601446001,0.41849148418491483,0.7843137254901961,0.8897146254458977,0.19545454545454546,0.843388797154833,0.7684210526315789,0.2664601084430674,3640,4426,411,8066,0.7826679890900075,0.5457369664153228,0.9120879120879121,0.6762313601446001,0.0,0.8157248157248157,0.9102798053527981,0.0,0.8612191958495461,0.7759917033964221,0.0,3640,4426,0,119,0.8907563025210085,0.31407407407407406,0.0,0.0,0.8907563025210085,0.0,0.0,1.0,0.0,0.0,0.9422222222222222,0,0,119,292,0.22602739726027396,0.12290502793296089,0.0,0.0,0.22602739726027396,0.0,0.0,1.0,0.0,0.0,0.3687150837988827,0,0,292,8185,0.7842394624312767,0.6210431232727033,0.9120879120879121,0.6762313601446001,0.8907563025210085,0.8157248157248157,0.9066949409269918,0.13022113022113022,0.8612191958495461,0.7746861653940728,0.22722400857449088,3640,4426,119,0.08777584924373916,0.41849148418491483,1.0790007812267692
simple_pc1_gm_gate_t254,score_outlier,0.02,pc2__ge,1.9185090159687288,346,8477,0.7650112067948567,0.6260899860764931,0.9120879120879121,0.6762313601446001,0.41849148418491483,0.7843137254901961,0.8897146254458977,0.19545454545454546,0.843388797154833,0.7684210526315789,0.2664601084430674,3640,4426,411,8066,0.7826679890900075,0.5457369664153228,0.9120879120879121,0.6762313601446001,0.0,0.8157248157248157,0.9102798053527981,0.0,0.8612191958495461,0.7759917033964221,0.0,3640,4426,0,119,0.8907563025210085,0.31407407407407406,0.0,0.0,0.8907563025210085,0.0,0.0,1.0,0.0,0.0,0.9422222222222222,0,0,119,292,0.22602739726027396,0.12290502793296089,0.0,0.0,0.22602739726027396,0.0,0.0,1.0,0.0,0.0,0.3687150837988827,0,0,292,8185,0.7842394624312767,0.6210431232727033,0.9120879120879121,0.6762313601446001,0.8907563025210085,0.8157248157248157,0.9066949409269918,0.13022113022113022,0.8612191958495461,0.7746861653940728,0.22722400857449088,3640,4426,119,0.08777584924373916,0.41849148418491483,1.0790007812267692
simple_pc1_gm_gate_t254,score_all_max,0.02,qrs_visibility__le,0.0524517835345784,608,8477,0.7513271204435531,0.6137182262072695,0.904945054945055,0.6536375960234975,0.44282238442822386,0.8091378039793663,0.8863357843137255,0.159369527145359,0.8543638957333679,0.752405721716515,0.2343850611719253,3640,4426,411,8066,0.7670468633771386,0.5438583711351533,0.904945054945055,0.6536375960234975,0.0,0.8407350689127105,0.907465495608532,0.0,0.8716591690923525,0.7599159443131074,0.0,3640,4426,0,119,0.8907563025210085,0.31407407407407406,0.0,0.0,0.8907563025210085,0.0,0.0,1.0,0.0,0.0,0.9422222222222222,0,0,119,292,0.2602739726027397,0.13768115942028986,0.0,0.0,0.2602739726027397,0.0,0.0,1.0,0.0,0.0,0.41304347826086957,0,0,292,8185,0.7688454489920586,0.6030609374446743,0.904945054945055,0.6536375960234975,0.8907563025210085,0.8407350689127105,0.9037800687285223,0.09943714821763602,0.8716591690923525,0.7586206896551724,0.17890295358649788,3640,4426,119,0.11901810066947682,0.44282238442822386,1.0789694962619938
simple_pc1_gm_gate_t254,score_outlier,0.02,none,,347,8477,0.7648932405332075,0.6259685340106923,0.9120879120879121,0.676005422503389,0.41849148418491483,0.7843137254901961,0.8896818316978888,0.1952326901248581,0.843388797154833,0.7682629349082039,0.26625386996904027,3640,4426,411,8066,0.7825440119018101,0.5456840683515947,0.9120879120879121,0.676005422503389,0.0,0.8157248157248157,0.9102525098874353,0.0,0.8612191958495461,0.7758330092052379,0.0,3640,4426,0,119,0.8907563025210085,0.31407407407407406,0.0,0.0,0.8907563025210085,0.0,0.0,1.0,0.0,0.0,0.9422222222222222,0,0,119,292,0.22602739726027396,0.12290502793296089,0.0,0.0,0.22602739726027396,0.0,0.0,1.0,0.0,0.0,0.3687150837988827,0,0,292,8185,0.7841172877214416,0.6209091643825458,0.9120879120879121,0.676005422503389,0.8907563025210085,0.8157248157248157,0.9066666666666666,0.13006134969325153,0.8612191958495461,0.7745275692466994,0.22698072805139186,3640,4426,119,0.08789982643193653,0.41849148418491483,1.0788828149651202
simple_pc1_gm_gate_t254,score_outlier,0.02,qrs_visibility__le,0.2800807397384144,347,8477,0.7648932405332075,0.6259685340106923,0.9120879120879121,0.676005422503389,0.41849148418491483,0.7843137254901961,0.8896818316978888,0.1952326901248581,0.843388797154833,0.7682629349082039,0.26625386996904027,3640,4426,411,8066,0.7825440119018101,0.5456840683515947,0.9120879120879121,0.676005422503389,0.0,0.8157248157248157,0.9102525098874353,0.0,0.8612191958495461,0.7758330092052379,0.0,3640,4426,0,119,0.8907563025210085,0.31407407407407406,0.0,0.0,0.8907563025210085,0.0,0.0,1.0,0.0,0.0,0.9422222222222222,0,0,119,292,0.22602739726027396,0.12290502793296089,0.0,0.0,0.22602739726027396,0.0,0.0,1.0,0.0,0.0,0.3687150837988827,0,0,292,8185,0.7841172877214416,0.6209091643825458,0.9120879120879121,0.676005422503389,0.8907563025210085,0.8157248157248157,0.9066666666666666,0.13006134969325153,0.8612191958495461,0.7745275692466994,0.22698072805139186,3640,4426,119,0.08789982643193653,0.41849148418491483,1.0788828149651202
simple_pc1_gm_gate_t254,score_outlier,0.02,qrs_visibility__le,0.3732307518330272,347,8477,0.7648932405332075,0.6259685340106923,0.9120879120879121,0.676005422503389,0.41849148418491483,0.7843137254901961,0.8896818316978888,0.1952326901248581,0.843388797154833,0.7682629349082039,0.26625386996904027,3640,4426,411,8066,0.7825440119018101,0.5456840683515947,0.9120879120879121,0.676005422503389,0.0,0.8157248157248157,0.9102525098874353,0.0,0.8612191958495461,0.7758330092052379,0.0,3640,4426,0,119,0.8907563025210085,0.31407407407407406,0.0,0.0,0.8907563025210085,0.0,0.0,1.0,0.0,0.0,0.9422222222222222,0,0,119,292,0.22602739726027396,0.12290502793296089,0.0,0.0,0.22602739726027396,0.0,0.0,1.0,0.0,0.0,0.3687150837988827,0,0,292,8185,0.7841172877214416,0.6209091643825458,0.9120879120879121,0.676005422503389,0.8907563025210085,0.8157248157248157,0.9066666666666666,0.13006134969325153,0.8612191958495461,0.7745275692466994,0.22698072805139186,3640,4426,119,0.08789982643193653,0.41849148418491483,1.0788828149651202
simple_pc1_gm_gate_t254,score_core,0.02,pc1__ge,-6.099036591134506,616,8477,0.7444850772679014,0.6084579667192085,0.8936813186813187,0.64979665612291,0.44282238442822386,0.7938018545632015,0.8906782285537318,0.1582608695652174,0.8407857327474799,0.7514043109079034,0.23318385650224216,3640,4426,411,8066,0.7598561864616911,0.5389756297387321,0.8936813186813187,0.64979665612291,0.0,0.8283677107206519,0.9069694102806686,0.0,0.8597859125148671,0.7571409767013295,0.0,3640,4426,0,119,0.9663865546218487,0.3276353276353276,0.0,0.0,0.9663865546218487,0.0,0.0,1.0,0.0,0.0,0.9829059829059829,0,0,119,292,0.22945205479452055,0.12441968430826371,0.0,0.0,0.22945205479452055,0.0,0.0,1.0,0.0,0.0,0.3732590529247911,0,0,292,8185,0.7628588882101405,0.6026254000452497,0.8936813186813187,0.64979665612291,0.9663865546218487,0.8283677107206519,0.9058267716535433,0.1061865189289012,0.8597859125148671,0.7567425338771214,0.1913477537437604,3640,4426,119,0.1200099181750558,0.44282238442822386,1.0788487032302352
simple_pc1_gm_gate_t254,score_outlier,0.02,pc1__le,-0.7734152380448813,336,8477,0.76595493688805,0.6267037698716834,0.9120879120879121,0.6782647989154993,0.41605839416058393,0.7843137254901961,0.8897451096621221,0.19655172413793104,0.843388797154833,0.7697435897435897,0.26697892271662765,3640,4426,411,8066,0.7837837837837838,0.546212432541156,0.9120879120879121,0.6782647989154993,0.0,0.8157248157248157,0.9105247194419169,0.0,0.8612191958495461,0.777418101773922,0.0,3640,4426,0,119,0.8907563025210085,0.31407407407407406,0.0,0.0,0.8907563025210085,0.0,0.0,1.0,0.0,0.0,0.9422222222222222,0,0,119,292,0.2226027397260274,0.12138188608776844,0.0,0.0,0.2226027397260274,0.0,0.0,1.0,0.0,0.0,0.3641456582633053,0,0,292,8185,0.7853390348197923,0.6222560369708073,0.9120879120879121,0.6782647989154993,0.8907563025210085,0.8157248157248157,0.9069486404833836,0.13167701863354037,0.8612191958495461,0.7761116856256464,0.22943722943722944,3640,4426,119,0.08666005454996281,0.41605839416058393,1.0785792311813098
simple_pc1_gm_gate_t254,score_all_max,0.08,pc3__le,3.281193089810729,568,8477,0.7517989854901498,0.6133044751404324,0.8994505494505495,0.6599638499774062,0.43309002433090027,0.7989263055148853,0.8913640524870308,0.16152450090744103,0.8462134918583614,0.758405815915877,0.23529411764705882,3640,4426,411,8066,0.7680386808827175,0.5432797356514673,0.8994505494505495,0.6599638499774062,0.0,0.8328669549732892,0.9096854562441608,0.0,0.8648791441024963,0.7649600628519052,0.0,3640,4426,0,119,0.9411764705882353,0.32323232323232326,0.0,0.0,0.9411764705882353,0.0,0.0,1.0,0.0,0.0,0.9696969696969697,0,0,119,292,0.22602739726027396,0.12290502793296089,0.0,0.0,0.22602739726027396,0.0,0.0,1.0,0.0,0.0,0.3687150837988827,0,0,292,8185,0.7705558949297495,0.607692696005242,0.8994505494505495,0.6599638499774062,0.9411764705882353,0.8328669549732892,0.9077066500932256,0.10810810810810811,0.8648791441024963,0.7642595499738357,0.19393939393939394,3640,4426,119,0.11455492189437144,0.43309002433090027,1.0784610741832412
simple_pc1_gm_gate_t254,score_all_max,0.05,qrs_visibility__le,0.1065758014715877,618,8477,0.7489677952105698,0.611161664046996,0.8980769230769231,0.6552191595119747,0.43795620437956206,0.8041820418204182,0.8895705521472392,0.15625,0.8485399091499026,0.7546187874056727,0.23032629558541268,3640,4426,411,8066,0.7648152739895859,0.5427595831307318,0.8980769230769231,0.6552191595119747,0.0,0.8384201077199281,0.9076682316118936,0.0,0.8672237697307336,0.7610549796614617,0.0,3640,4426,0,119,0.9411764705882353,0.32323232323232326,0.0,0.0,0.9411764705882353,0.0,0.0,1.0,0.0,0.0,0.9696969696969697,0,0,119,292,0.2328767123287671,0.1259259259259259,0.0,0.0,0.2328767123287671,0.0,0.0,1.0,0.0,0.0,0.37777777777777777,0,0,292,8185,0.7673793524740379,0.6045938381684373,0.8980769230769231,0.6552191595119747,0.9411764705882353,0.8384201077199281,0.905683947532792,0.1033210332103321,0.8672237697307336,0.7603565810173046,0.1862011637572735,3640,4426,119,0.12050582692784528,0.43795620437956206,1.0783604441809669
simple_pc1_gm_gate_t254,score_dual,0.01,pc3__le,2.1506591515994145,539,8477,0.7541583107231332,0.6141853114380443,0.893956043956044,0.6699051061906913,0.4233576642335766,0.7954045465656319,0.8949592514337459,0.16216216216216217,0.8418057172422714,0.7662488693629668,0.23450134770889489,3640,4426,411,8066,0.7710141333994545,0.5445798087550145,0.893956043956044,0.6699051061906913,0.0,0.830949948927477,0.9120270685942787,0.0,0.8613022763366861,0.7724371499283574,0.0,3640,4426,0,119,0.9747899159663865,0.32907801418439714,0.0,0.0,0.9747899159663865,0.0,0.0,1.0,0.0,0.0,0.9872340425531915,0,0,119,292,0.19863013698630136,0.11047619047619046,0.0,0.0,0.19863013698630136,0.0,0.0,1.0,0.0,0.0,0.3314285714285714,0,0,292,8185,0.7739767868051314,0.612674410307408,0.893956043956044,0.6699051061906913,0.9747899159663865,0.830949948927477,0.9111862323294407,0.11428571428571428,0.8613022763366861,0.7721354166666666,0.20458553791887124,3640,4426,119,0.11145549218943715,0.4233576642335766,1.0783465011477882
simple_pc1_gm_gate_t254,score_all_max,0.08,none,,574,8477,0.7510911879202548,0.6126720561094713,0.8994505494505495,0.6586082241301401,0.43309002433090027,0.7989263055148853,0.8911647814124121,0.16064981949458484,0.8462134918583614,0.757437962842666,0.23436471362738645,3640,4426,411,8066,0.7672948177535334,0.5429560454569584,0.8994505494505495,0.6586082241301401,0.0,0.8328669549732892,0.9095163806552262,0.0,0.8648791441024963,0.763988992268379,0.0,3640,4426,0,119,0.9411764705882353,0.32323232323232326,0.0,0.0,0.9411764705882353,0.0,0.0,1.0,0.0,0.0,0.9696969696969697,0,0,119,292,0.22602739726027396,0.12290502793296089,0.0,0.0,0.22602739726027396,0.0,0.0,1.0,0.0,0.0,0.3687150837988827,0,0,292,8185,0.7698228466707392,0.6070350287782532,0.8994505494505495,0.6586082241301401,0.9411764705882353,0.8328669549732892,0.9075342465753424,0.10748560460652591,0.8648791441024963,0.7632888190625818,0.1929371231696813,3640,4426,119,0.11529878502355567,0.43309002433090027,1.0777532766133462
simple_pc1_gm_gate_t254,score_all_max,0.08,qrs_visibility__le,0.2800807397384144,574,8477,0.7510911879202548,0.6126720561094713,0.8994505494505495,0.6586082241301401,0.43309002433090027,0.7989263055148853,0.8911647814124121,0.16064981949458484,0.8462134918583614,0.757437962842666,0.23436471362738645,3640,4426,411,8066,0.7672948177535334,0.5429560454569584,0.8994505494505495,0.6586082241301401,0.0,0.8328669549732892,0.9095163806552262,0.0,0.8648791441024963,0.763988992268379,0.0,3640,4426,0,119,0.9411764705882353,0.32323232323232326,0.0,0.0,0.9411764705882353,0.0,0.0,1.0,0.0,0.0,0.9696969696969697,0,0,119,292,0.22602739726027396,0.12290502793296089,0.0,0.0,0.22602739726027396,0.0,0.0,1.0,0.0,0.0,0.3687150837988827,0,0,292,8185,0.7698228466707392,0.6070350287782532,0.8994505494505495,0.6586082241301401,0.9411764705882353,0.8328669549732892,0.9075342465753424,0.10748560460652591,0.8648791441024963,0.7632888190625818,0.1929371231696813,3640,4426,119,0.11529878502355567,0.43309002433090027,1.0777532766133462
simple_pc1_gm_gate_t254,score_all_max,0.08,qrs_visibility__le,0.3732307518330272,574,8477,0.7510911879202548,0.6126720561094713,0.8994505494505495,0.6586082241301401,0.43309002433090027,0.7989263055148853,0.8911647814124121,0.16064981949458484,0.8462134918583614,0.757437962842666,0.23436471362738645,3640,4426,411,8066,0.7672948177535334,0.5429560454569584,0.8994505494505495,0.6586082241301401,0.0,0.8328669549732892,0.9095163806552262,0.0,0.8648791441024963,0.763988992268379,0.0,3640,4426,0,119,0.9411764705882353,0.32323232323232326,0.0,0.0,0.9411764705882353,0.0,0.0,1.0,0.0,0.0,0.9696969696969697,0,0,119,292,0.22602739726027396,0.12290502793296089,0.0,0.0,0.22602739726027396,0.0,0.0,1.0,0.0,0.0,0.3687150837988827,0,0,292,8185,0.7698228466707392,0.6070350287782532,0.8994505494505495,0.6586082241301401,0.9411764705882353,0.8328669549732892,0.9075342465753424,0.10748560460652591,0.8648791441024963,0.7632888190625818,0.1929371231696813,3640,4426,119,0.11529878502355567,0.43309002433090027,1.0777532766133462
simple_pc1_gm_gate_t254,score_outlier,0.02,qrs_visibility__le,0.1065758014715877,346,8477,0.7647752742715583,0.6254880107143285,0.9120879120879121,0.676005422503389,0.41605839416058393,0.7843137254901961,0.8894173602853745,0.1943181818181818,0.843388797154833,0.7681643132220796,0.26491092176607284,3640,4426,411,8066,0.7825440119018101,0.5456840683515947,0.9120879120879121,0.676005422503389,0.0,0.8157248157248157,0.9102525098874353,0.0,0.8612191958495461,0.7758330092052379,0.0,3640,4426,0,119,0.8907563025210085,0.31407407407407406,0.0,0.0,0.8907563025210085,0.0,0.0,1.0,0.0,0.0,0.9422222222222222,0,0,119,292,0.2226027397260274,0.12138188608776844,0.0,0.0,0.2226027397260274,0.0,0.0,1.0,0.0,0.0,0.3641456582633053,0,0,292,8185,0.7841172877214416,0.6209091643825458,0.9120879120879121,0.676005422503389,0.8907563025210085,0.8157248157248157,0.9066666666666666,0.13006134969325153,0.8612191958495461,0.7745275692466994,0.22698072805139186,3640,4426,119,0.08789982643193653,0.41605839416058393,1.077399568564818
simple_pc1_gm_gate_t254,score_all_max,0.01,pc2__le,10.616705266871826,176,8477,0.7611183201604341,0.6281875587350915,0.9115384615384615,0.6703569814731134,0.40632603406326034,0.7434461124803944,0.8980024213075061,0.2352112676056338,0.8189559422436135,0.7676584734799482,0.29794826048171275,3640,4426,411,8066,0.779196627820481,0.5372316408271266,0.9115384615384615,0.6703569814731134,0.0,0.7770491803278688,0.9120811558561328,0.0,0.8389380530973451,0.7727568693840344,0.0,3640,4426,0,119,0.9915966386554622,0.33192686357243323,0.0,0.0,0.9915966386554622,0.0,0.0,1.0,0.0,0.0,0.9957805907172996,0,0,119,292,0.1678082191780822,0.09579667644183774,0.0,0.0,0.1678082191780822,0.0,0.0,1.0,0.0,0.0,0.2873900293255132,0,0,292,8185,0.7822846670739158,0.6380528018871493,0.9115384615384615,0.6703569814731134,0.9915966386554622,0.7770491803278688,0.91180086047941,0.17851739788199697,0.8389380530973451,0.77265625,0.30256410256410254,3640,4426,119,0.06731961319117283,0.40632603406326034,1.077243160757607
simple_pc1_gm_gate_t254,score_all_max,0.05,pc1__ge,-6.099036591134506,613,8477,0.7476701663324289,0.6098736952084495,0.8967032967032967,0.6540894713059195,0.43552311435523117,0.7990208078335373,0.8921417565485362,0.15605928509154315,0.8450485436893204,0.7547907704341025,0.22978177150192555,3640,4426,411,8066,0.7635755021076122,0.5416777889625527,0.8967032967032967,0.6540894713059195,0.0,0.8341426015844621,0.9089481946624803,0.0,0.8642923341718523,0.7607410327158061,0.0,3640,4426,0,119,0.957983193277311,0.3261802575107296,0.0,0.0,0.957983193277311,0.0,0.0,1.0,0.0,0.0,0.9785407725321889,0,0,119,292,0.2226027397260274,0.12138188608776844,0.0,0.0,0.2226027397260274,0.0,0.0,1.0,0.0,0.0,0.3641456582633053,0,0,292,8185,0.7664019547953573,0.6047919097705856,0.8967032967032967,0.6540894713059195,0.957983193277311,0.8341426015844621,0.9075235109717869,0.10536044362292052,0.8642923341718523,0.7602415966386554,0.18984179850124897,3640,4426,119,0.1200099181750558,0.43552311435523117,1.0771911463072605
simple_pc1_gm_gate_t254,score_all_max,0.1,pc3__le,3.281193089810729,537,8477,0.7529786481066415,0.6139818816197179,0.9008241758241758,0.6615454134658835,0.4282238442822384,0.7956806600339723,0.891324200913242,0.16433239962651727,0.8449942017781213,0.759434573985216,0.23751686909581646,3640,4426,411,8066,0.769526407141086,0.5432604309389318,0.9008241758241758,0.6615454134658835,0.0,0.829496584872249,0.9098819142324425,0.0,0.863690241011458,0.7660910518053375,0.0,3640,4426,0,119,0.9411764705882353,0.32323232323232326,0.0,0.0,0.9411764705882353,0.0,0.0,1.0,0.0,0.0,0.9696969696969697,0,0,119,292,0.2191780821917808,0.1198501872659176,0.0,0.0,0.2191780821917808,0.0,0.0,1.0,0.0,0.0,0.3595505617977528,0,0,292,8185,0.7720219914477703,0.6093382222433213,0.9008241758241758,0.6615454134658835,0.9411764705882353,0.829496584872249,0.9079069767441861,0.1112214498510427,0.863690241011458,0.7653901450790747,0.1989342806394316,3640,4426,119,0.11095958343664766,0.4282238442822384,1.0769101765224274
simple_pc1_gm_gate_t254,score_outlier,0.02,qrs_visibility__le,0.0524517835345784,327,8477,0.7654830718414534,0.6262190424328319,0.9126373626373626,0.6771351107094442,0.41362530413625304,0.7823834196891192,0.8893175074183977,0.19744483159117304,0.8425057063149886,0.7688558234992304,0.2672955974842767,3640,4426,411,8066,0.7834118522191916,0.5456378406640187,0.9126373626373626,0.6771351107094442,0.0,0.813617438158217,0.9103888213851762,0.0,0.8602874530622815,0.7766260689297746,0.0,3640,4426,0,119,0.8907563025210085,0.31407407407407406,0.0,0.0,0.8907563025210085,0.0,0.0,1.0,0.0,0.0,0.9422222222222222,0,0,119,292,0.2191780821917808,0.1198501872659176,0.0,0.0,0.2191780821917808,0.0,0.0,1.0,0.0,0.0,0.3595505617977528,0,0,292,8185,0.7849725106902871,0.6223495469315128,0.9126373626373626,0.6771351107094442,0.8907563025210085,0.813617438158217,0.9068078668683812,0.1329987452948557,0.8602874530622815,0.7753201396973225,0.2314410480349345,3640,4426,119,0.08566823704438384,0.41362530413625304,1.0767420859960604
simple_pc1_gm_gate_t254,score_all_max,0.1,none,,542,8477,0.7523888167983956,0.6134473552111953,0.9008241758241758,0.6604157252598283,0.4282238442822384,0.7956806600339723,0.8911585365853658,0.16356877323420074,0.8449942017781213,0.758629639242149,0.2367182246133154,3640,4426,411,8066,0.7689065212000992,0.5429912183569633,0.9008241758241758,0.6604157252598283,0.0,0.829496584872249,0.9097416744475568,0.0,0.863690241011458,0.7652834140594319,0.0,3640,4426,0,119,0.9411764705882353,0.32323232323232326,0.0,0.0,0.9411764705882353,0.0,0.0,1.0,0.0,0.0,0.9696969696969697,0,0,119,292,0.2191780821917808,0.1198501872659176,0.0,0.0,0.2191780821917808,0.0,0.0,1.0,0.0,0.0,0.3595505617977528,0,0,292,8185,0.771411117898595,0.608775949380672,0.9008241758241758,0.6604157252598283,0.9411764705882353,0.829496584872249,0.9077639751552795,0.11067193675889328,0.863690241011458,0.7645827883860842,0.19805481874447392,3640,4426,119,0.11157946937763452,0.4282238442822384,1.0763203452141816
