method,rule,train_n,train_acc,train_macro_f1,train_good_recall,train_medium_recall,train_bad_recall,train_good_precision,train_medium_precision,train_bad_precision,train_confusion_3x3,val_n,val_acc,val_macro_f1,val_good_recall,val_medium_recall,val_bad_recall,val_good_precision,val_medium_precision,val_bad_precision,val_confusion_3x3,test_n,test_acc,test_macro_f1,test_good_recall,test_medium_recall,test_bad_recall,test_good_precision,test_medium_precision,test_bad_precision,test_confusion_3x3,test_gm_n,test_gm_acc,test_gm_macro_f1,test_gm_good_recall,test_gm_medium_recall,test_gm_bad_recall,test_gm_good_precision,test_gm_medium_precision,test_gm_bad_precision,test_gm_confusion_3x3,test_bad_core_n,test_bad_core_acc,test_bad_core_macro_f1,test_bad_core_good_recall,test_bad_core_medium_recall,test_bad_core_bad_recall,test_bad_core_good_precision,test_bad_core_medium_precision,test_bad_core_bad_precision,test_bad_core_confusion_3x3,test_bad_outlier_n,test_bad_outlier_acc,test_bad_outlier_macro_f1,test_bad_outlier_good_recall,test_bad_outlier_medium_recall,test_bad_outlier_bad_recall,test_bad_outlier_good_precision,test_bad_outlier_medium_precision,test_bad_outlier_bad_precision,test_bad_outlier_confusion_3x3,all_n,all_acc,all_macro_f1,all_good_recall,all_medium_recall,all_bad_recall,all_good_precision,all_medium_precision,all_bad_precision,all_confusion_3x3,selection_score,feature,threshold,direction
raw,raw,23322,0.8406654660835263,0.8480020660699933,0.8510535628116455,0.7041167787436444,0.9874765184721352,0.8546276853497011,0.691972920696325,0.9989442567567568,"[[10582, 1852, 0], [1799, 4293, 5], [1, 59, 4731]]",1157,0.8366464995678479,0.7729874774294349,0.8359133126934984,0.7904761904761904,0.9036144578313253,0.9700598802395209,0.3360323886639676,1.0,"[[810, 159, 0], [22, 83, 0], [3, 5, 75]]",8477,0.7136958829774684,0.593775918448216,0.6258241758241758,0.8328061455038409,0.20924574209245742,0.7412951513179303,0.6931177134261001,1.0,"[[2278, 1362, 0], [740, 3686, 0], [55, 270, 86]]",8066,0.7393999504091248,0.48747306478366986,0.6258241758241758,0.8328061455038409,0.0,0.75480450629556,0.7301901743264659,0.0,"[[2278, 1362, 0], [740, 3686, 0], [0, 0, 0]]",119,0.7226890756302521,0.27967479674796747,0.0,0.0,0.7226890756302521,0.0,0.0,1.0,"[[0, 0, 0], [0, 0, 0], [0, 33, 86]]",292,0.0,0.0,0.0,0.0,0.0,0.0,0.0,0.0,"[[0, 0, 0], [0, 0, 0], [55, 237, 0]]",32956,0.8078650321640976,0.8336791535061127,0.8020888341254474,0.7585622882950697,0.9256385998107852,0.8391651319828115,0.6850199677117852,0.9989789667143149,"[[13670, 3373, 0], [2561, 8062, 5], [59, 334, 4892]]",1.1754646292293511,,,
medium_guarded_pmed001,medium_guarded_pmed001,23322,0.8362490352456907,0.8472179565428154,0.8240308830625703,0.7423322945711005,0.9874765184721352,0.8673495301786168,0.6682415473202421,0.9989442567567568,"[[10246, 2188, 0], [1566, 4526, 5], [1, 59, 4731]]",1157,0.8254105445116681,0.7675382675958687,0.8194014447884417,0.819047619047619,0.9036144578313253,0.9730392156862745,0.3233082706766917,1.0,"[[794, 175, 0], [19, 86, 0], [3, 5, 75]]",8477,0.7144036805473635,0.5917918827292373,0.5848901098901099,0.8678264798915499,0.20924574209245742,0.7727767695099819,0.6815117104329311,1.0,"[[2129, 1511, 0], [585, 3841, 0], [41, 284, 86]]",8066,0.7401438135383089,0.485256762663927,0.5848901098901099,0.8678264798915499,0.0,0.7844509948415622,0.7176756352765321,0.0,"[[2129, 1511, 0], [585, 3841, 0], [0, 0, 0]]",119,0.7226890756302521,0.27967479674796747,0.0,0.0,0.7226890756302521,0.0,0.0,1.0,"[[0, 0, 0], [0, 0, 0], [0, 33, 86]]",292,0.0,0.0,0.0,0.0,0.0,0.0,0.0,0.0,"[[0, 0, 0], [0, 0, 0], [41, 251, 0]]",32956,0.8045272484524821,0.8328739273806033,0.7726926010678871,0.7953519006398193,0.9256385998107852,0.8560192407696308,0.6669033530571992,0.9989789667143149,"[[13169, 3874, 0], [2170, 8453, 5], [45, 348, 4892]]",1.169942959887457,,,
simple_pc1_t226,simple_pc1_t226,23322,0.8686647800360175,0.8827082446832253,0.7947563133344057,0.926029194685911,0.9874765184721352,0.9566311713455954,0.6838662790697675,0.9989442567567568,"[[9882, 2552, 0], [446, 5646, 5], [2, 58, 4731]]",1157,0.6836646499567848,0.6891145691042103,0.6408668730650154,0.9047619047619048,0.9036144578313253,0.9841521394611727,0.2106430155210643,1.0,"[[621, 348, 0], [10, 95, 0], [0, 8, 75]]",8477,0.7605284888521883,0.6305166493369483,0.9321428571428572,0.6705829191143244,0.20924574209245742,0.6673878835562549,0.8974901723616571,1.0,"[[3393, 247, 0], [1458, 2968, 0], [233, 92, 86]]",8066,0.7886188941234813,0.5253536064547905,0.9321428571428572,0.6705829191143244,0.0,0.699443413729128,0.9231726283048212,0.0,"[[3393, 247, 0], [1458, 2968, 0], [0, 0, 0]]",119,0.7226890756302521,0.27967479674796747,0.0,0.0,0.7226890756302521,0.0,0.0,1.0,"[[0, 0, 0], [0, 0, 0], [0, 33, 86]]",292,0.0,0.0,0.0,0.0,0.0,0.0,0.0,0.0,"[[0, 0, 0], [0, 0, 0], [233, 59, 0]]",32956,0.8343548974390096,0.8567105725065685,0.8153494103150853,0.819439217162213,0.9256385998107852,0.8660641944531007,0.7249042783419344,0.9989789667143149,"[[13896, 3147, 0], [1914, 8709, 5], [235, 158, 4892]]",0.9925609161360529,,,
simple_pc1_t254,simple_pc1_t254,23322,0.8467970156933368,0.865667532659153,0.7454560077207656,0.9429227488928982,0.9874765184721352,0.9641148325358851,0.6407712884529648,0.9989442567567568,"[[9269, 3165, 0], [343, 5749, 5], [2, 58, 4731]]",1157,0.658599827139153,0.6772567250628434,0.608875128998968,0.9238095238095239,0.9036144578313253,0.9866220735785953,0.20041322314049587,1.0,"[[590, 379, 0], [8, 97, 0], [0, 8, 75]]",8477,0.7713813849239117,0.6381560956805704,0.9189560439560439,0.7022141888838681,0.20924574209245742,0.685170012290045,0.8857224280421773,1.0,"[[3345, 295, 0], [1318, 3108, 0], [219, 106, 86]]",8066,0.8000247954376395,0.5332346668684588,0.9189560439560439,0.7022141888838681,0.0,0.7173493459146473,0.9133117837202468,0.0,"[[3345, 295, 0], [1318, 3108, 0], [0, 0, 0]]",119,0.7226890756302521,0.27967479674796747,0.0,0.0,0.7226890756302521,0.0,0.0,1.0,"[[0, 0, 0], [0, 0, 0], [0, 33, 86]]",292,0.0,0.0,0.0,0.0,0.0,0.0,0.0,0.0,"[[0, 0, 0], [0, 0, 0], [219, 73, 0]]",32956,0.8207913581745357,0.8472273567537121,0.7747462301238045,0.8424915318027851,0.9256385998107852,0.8747846826553597,0.690628615503278,0.9989789667143149,"[[13204, 3839, 0], [1669, 8954, 5], [221, 172, 4892]]",0.9610977445052117,,,
single_pc1_threshold,non-bad pc1 <= -6.4350 -> good else medium,23322,0.4806620358459823,0.5184536669835704,0.03136561042303362,0.9986878792848942,0.9874765184721352,0.9898477157360406,0.334707563764292,0.9989442567567568,"[[390, 12044, 0], [3, 6089, 5], [1, 59, 4731]]",1157,0.15557476231633535,0.37542789502308765,0.0,1.0,0.9036144578313253,0.0,0.09704251386321626,1.0,"[[0, 969, 0], [0, 105, 0], [0, 8, 75]]",8477,0.563406865636428,0.4065997911677011,0.09642857142857143,0.9803434252146408,0.20924574209245742,0.7389473684210527,0.5481303688731682,1.0,"[[351, 3289, 0], [87, 4339, 0], [37, 288, 86]]",8066,0.5814530126456732,0.29735673421431796,0.09642857142857143,0.9803434252146408,0.0,0.8013698630136986,0.5688253801782905,0.0,"[[351, 3289, 0], [87, 4339, 0], [0, 0, 0]]",119,0.7226890756302521,0.27967479674796747,0.0,0.0,0.7226890756302521,0.0,0.0,1.0,"[[0, 0, 0], [0, 0, 0], [0, 33, 86]]",292,0.0,0.0,0.0,0.0,0.0,0.0,0.0,0.0,"[[0, 0, 0], [0, 0, 0], [37, 255, 0]]",32956,0.490532831654327,0.5335618578632569,0.043478260869565216,0.991061347384268,0.9256385998107852,0.8527042577675489,0.3873850680397205,0.9989789667143149,"[[741, 16302, 0], [90, 10533, 5], [38, 355, 4892]]",0.33629765388260047,pc1,-6.435045004701382,
single_pc1_threshold,non-bad pc1 <= -6.2926 -> good else medium,23322,0.4889803618900609,0.5294292368059644,0.04696799099244008,0.9986878792848942,0.9874765184721352,0.9931972789115646,0.3383153683742638,0.9989442567567568,"[[584, 11850, 0], [3, 6089, 5], [1, 59, 4731]]",1157,0.15730337078651685,0.3769005809835439,0.0020639834881320948,1.0,0.9036144578313253,1.0,0.09722222222222222,1.0,"[[2, 967, 0], [0, 105, 0], [0, 8, 75]]",8477,0.576029255632889,0.42528845082296235,0.12884615384615383,0.9778581111613195,0.20924574209245742,0.7726523887973641,0.5560123329907503,1.0,"[[469, 3171, 0], [98, 4328, 0], [40, 285, 86]]",8066,0.594718571782792,0.316277250471204,0.12884615384615383,0.9778581111613195,0.0,0.8271604938271605,0.5771436191492199,0.0,"[[469, 3171, 0], [98, 4328, 0], [0, 0, 0]]",119,0.7226890756302521,0.27967479674796747,0.0,0.0,0.7226890756302521,0.0,0.0,1.0,"[[0, 0, 0], [0, 0, 0], [0, 33, 86]]",292,0.0,0.0,0.0,0.0,0.0,0.0,0.0,0.0,"[[0, 0, 0], [0, 0, 0], [40, 252, 0]]",32956,0.4997269086054133,0.5459714187764906,0.06190224725693833,0.9900263455024464,0.9256385998107852,0.8813700918964077,0.391705755342119,0.9989789667143149,"[[1055, 15988, 0], [101, 10522, 5], [41, 352, 4892]]",0.3384390590504084,pc1,-6.292621454627511,
single_pc1_threshold,non-bad pc1 <= -6.1599 -> good else medium,23322,0.4969985421490438,0.5398234710546045,0.062168248351294836,0.9983598491061177,0.9874765184721352,0.9922978177150192,0.3418318638737575,0.9989442567567568,"[[773, 11661, 0], [5, 6087, 5], [1, 59, 4731]]",1157,0.1616248919619706,0.38055915086586406,0.007223942208462332,1.0,0.9036144578313253,1.0,0.09767441860465116,1.0,"[[7, 962, 0], [0, 105, 0], [0, 8, 75]]",8477,0.5898313082458417,0.4454642312368566,0.16675824175824175,0.9731134206958879,0.20924574209245742,0.7883116883116883,0.5651489305865371,1.0,"[[607, 3033, 0], [119, 4307, 0], [44, 281, 86]]",8066,0.6092239028018844,0.3367223955647365,0.16675824175824175,0.9731134206958879,0.0,0.8360881542699724,0.5867847411444141,0.0,"[[607, 3033, 0], [119, 4307, 0], [0, 0, 0]]",119,0.7226890756302521,0.27967479674796747,0.0,0.0,0.7226890756302521,0.0,0.0,1.0,"[[0, 0, 0], [0, 0, 0], [0, 33, 86]]",292,0.0,0.0,0.0,0.0,0.0,0.0,0.0,0.0,"[[0, 0, 0], [0, 0, 0], [44, 248, 0]]",32956,0.5091030464862241,0.5585235045929843,0.08138238573021182,0.9878622506586375,0.9256385998107852,0.8913881748071979,0.3961438327736483,0.9989789667143149,"[[1387, 15656, 0], [124, 10499, 5], [45, 348, 4892]]",0.3437925719699282,pc1,-6.15993924142067,
single_pc1_threshold,non-bad pc1 <= -5.9980 -> good else medium,23322,0.5046736986536318,0.5494937760740818,0.07656425928904616,0.9983598491061177,0.9874765184721352,0.9937369519832986,0.34530292716133426,0.9989442567567568,"[[952, 11482, 0], [5, 6087, 5], [1, 59, 4731]]",1157,0.1763180639585134,0.3927576516793474,0.02476780185758514,1.0,0.9036144578313253,1.0,0.09924385633270322,1.0,"[[24, 945, 0], [0, 105, 0], [0, 8, 75]]",8477,0.6092957414179545,0.4713943037049207,0.21868131868131868,0.9676909173068233,0.20924574209245742,0.8032290615539859,0.5787837837837838,1.0,"[[796, 2844, 0], [143, 4283, 0], [52, 273, 86]]",8066,0.6296801388544507,0.363042200420443,0.21868131868131868,0.9676909173068233,0.0,0.8477103301384451,0.6009541181422758,0.0,"[[796, 2844, 0], [143, 4283, 0], [0, 0, 0]]",119,0.7226890756302521,0.27967479674796747,0.0,0.0,0.7226890756302521,0.0,0.0,1.0,"[[0, 0, 0], [0, 0, 0], [0, 33, 86]]",292,0.0,0.0,0.0,0.0,0.0,0.0,0.0,0.0,"[[0, 0, 0], [0, 0, 0], [52, 240, 0]]",32956,0.5200570457579803,0.5726359314087167,0.10397230534530305,0.9856040647346631,0.9256385998107852,0.8981246832235175,0.40155639040098134,0.9989789667143149,"[[1772, 15271, 0], [148, 10475, 5], [53, 340, 4892]]",0.3619945158962955,pc1,-5.997969270816784,
single_pc1_threshold,non-bad pc1 <= -5.8194 -> good else medium,23322,0.511920075465226,0.5584931306877835,0.09031687308991475,0.9980318189273413,0.9874765184721352,0.9929266136162688,0.34861071326267545,0.9989442567567568,"[[1123, 11311, 0], [7, 6085, 5], [1, 59, 4731]]",1157,0.1961970613656007,0.4086990999875848,0.048503611971104234,1.0,0.9036144578313253,1.0,0.10144927536231885,1.0,"[[47, 922, 0], [0, 105, 0], [0, 8, 75]]",8477,0.6335967913176831,0.5012623299636351,0.28434065934065933,0.9602349751468595,0.20924574209245742,0.8149606299212598,0.5968262884426344,1.0,"[[1035, 2605, 0], [176, 4250, 0], [59, 266, 86]]",8066,0.6552194396231094,0.39339848082740686,0.28434065934065933,0.9602349751468595,0.0,0.8546655656482246,0.6199854121079504,0.0,"[[1035, 2605, 0], [176, 4250, 0], [0, 0, 0]]",119,0.7226890756302521,0.27967479674796747,0.0,0.0,0.7226890756302521,0.0,0.0,1.0,"[[0, 0, 0], [0, 0, 0], [0, 33, 86]]",292,0.0,0.0,0.0,0.0,0.0,0.0,0.0,0.0,"[[0, 0, 0], [0, 0, 0], [59, 233, 0]]",32956,0.5321337540963709,0.5877815082022925,0.12937863052279527,0.9823108769288671,0.9256385998107852,0.9007352941176471,0.4076373433290383,0.9989789667143149,"[[2205, 14838, 0], [183, 10440, 5], [60, 333, 4892]]",0.3866206753260866,pc1,-5.819426070506595,
single_pc1_threshold,non-bad pc1 <= -5.6734 -> good else medium,23322,0.5190806963382214,0.5672110410935601,0.10390863760656265,0.9977037887485649,0.9874765184721352,0.9923195084485407,0.35194399444573016,0.9989442567567568,"[[1292, 11142, 0], [9, 6083, 5], [1, 59, 4731]]",1157,0.21780466724286948,0.42534547534728295,0.07430340557275542,1.0,0.9036144578313253,1.0,0.10396039603960396,1.0,"[[72, 897, 0], [0, 105, 0], [0, 8, 75]]",8477,0.6550666509378318,0.5254459381179832,0.34203296703296704,0.9539087211929508,0.20924574209245742,0.8239576439444076,0.6136627906976744,1.0,"[[1245, 2395, 0], [204, 4222, 0], [62, 263, 86]]",8066,0.677783287875031,0.41797930490562685,0.34203296703296704,0.9539087211929508,0.0,0.8592132505175983,0.638053498564304,0.0,"[[1245, 2395, 0], [204, 4222, 0], [0, 0, 0]]",119,0.7226890756302521,0.27967479674796747,0.0,0.0,0.7226890756302521,0.0,0.0,1.0,"[[0, 0, 0], [0, 0, 0], [0, 33, 86]]",292,0.0,0.0,0.0,0.0,0.0,0.0,0.0,0.0,"[[0, 0, 0], [0, 0, 0], [62, 230, 0]]",32956,0.5434822187158636,0.6014286012596951,0.15308337733967026,0.9794881445238991,0.9256385998107852,0.9043327556325823,0.41352188766187337,0.9989789667143149,"[[2609, 14434, 0], [213, 10410, 5], [63, 330, 4892]]",0.4133882399236857,pc1,-5.673433991918392,
single_pc1_threshold,non-bad pc1 <= -5.5577 -> good else medium,23322,0.5261984392419174,0.5757356251752835,0.11750040212321056,0.9972117434804002,0.9874765184721352,0.991180461329715,0.35530621785881256,0.9989442567567568,"[[1461, 10973, 0], [12, 6080, 5], [1, 59, 4731]]",1157,0.23681936041486604,0.4394738745259603,0.09803921568627451,0.9904761904761905,0.9036144578313253,0.9895833333333334,0.10547667342799188,1.0,"[[95, 874, 0], [1, 104, 0], [0, 8, 75]]",8477,0.6731154889701545,0.544694432476744,0.39203296703296703,0.947356529597831,0.20924574209245742,0.8272463768115942,0.629012901290129,1.0,"[[1427, 2213, 0], [233, 4193, 0], [65, 260, 86]]",8066,0.6967517976692289,0.43755938611893014,0.39203296703296703,0.947356529597831,0.0,0.8596385542168675,0.6545426162972213,0.0,"[[1427, 2213, 0], [233, 4193, 0], [0, 0, 0]]",119,0.7226890756302521,0.27967479674796747,0.0,0.0,0.7226890756302521,0.0,0.0,1.0,"[[0, 0, 0], [0, 0, 0], [0, 33, 86]]",292,0.0,0.0,0.0,0.0,0.0,0.0,0.0,0.0,"[[0, 0, 0], [0, 0, 0], [65, 227, 0]]",32956,0.5538293482218716,0.6135525436344585,0.1750278706800446,0.9763831388784343,0.9256385998107852,0.9053110773899848,0.41903569697948634,0.9989789667143149,"[[2983, 14060, 0], [246, 10377, 5], [66, 327, 4892]]",0.43715009511838604,pc1,-5.557691586215402,
single_pc1_threshold,non-bad pc1 <= -5.4605 -> good else medium,23322,0.5332733041763142,0.5840041695284733,0.13085089271352743,0.997047728391012,0.9874765184721352,0.9914686166971359,0.3587488934789023,0.9989442567567568,"[[1627, 10807, 0], [13, 6079, 5], [1, 59, 4731]]",1157,0.26188418323249785,0.45730500149270076,0.12796697626418987,0.9904761904761905,0.9036144578313253,0.992,0.10867293625914315,1.0,"[[124, 845, 0], [1, 104, 0], [0, 8, 75]]",8477,0.6899846643859856,0.5612645268184503,0.43626373626373627,0.9432896520560325,0.20924574209245742,0.8301097752221641,0.6444890398271071,1.0,"[[1588, 2052, 0], [251, 4175, 0], [74, 251, 86]]",8066,0.714480535581453,0.4544948626086052,0.43626373626373627,0.9432896520560325,0.0,0.8635127786840674,0.6704673197366308,0.0,"[[1588, 2052, 0], [251, 4175, 0], [0, 0, 0]]",119,0.7226890756302521,0.27967479674796747,0.0,0.0,0.7226890756302521,0.0,0.0,1.0,"[[0, 0, 0], [0, 0, 0], [0, 33, 86]]",292,0.0,0.0,0.0,0.0,0.0,0.0,0.0,0.0,"[[0, 0, 0], [0, 0, 0], [74, 218, 0]]",32956,0.5640551037747299,0.6249760199522502,0.19591621193451858,0.9745954083552879,0.9256385998107852,0.9075835824952433,0.42485643970467596,0.9989789667143149,"[[3339, 13704, 0], [265, 10358, 5], [75, 318, 4892]]",0.4682004700516009,pc1,-5.460539541337899,
single_pc1_threshold,non-bad pc1 <= -5.3735 -> good else medium,23322,0.540133779264214,0.591925292242353,0.14396010937751327,0.9965556831228473,0.9874765184721352,0.9905921416712784,0.362119315811431,0.9989442567567568,"[[1790, 10644, 0], [16, 6076, 5], [1, 59, 4731]]",1157,0.2878133102852204,0.47497960950588713,0.15892672858617132,0.9904761904761905,0.9036144578313253,0.9935483870967742,0.1121898597626753,1.0,"[[154, 815, 0], [1, 104, 0], [0, 8, 75]]",8477,0.7031968856906925,0.5743398029997592,0.4760989010989011,0.9358337098960687,0.20924574209245742,0.8268129770992366,0.6579825258141382,1.0,"[[1733, 1907, 0], [284, 4142, 0], [79, 246, 86]]",8066,0.7283659806595586,0.46784252063290893,0.4760989010989011,0.9358337098960687,0.0,0.8591968269707486,0.6847412795503389,0.0,"[[1733, 1907, 0], [284, 4142, 0], [0, 0, 0]]",119,0.7226890756302521,0.27967479674796747,0.0,0.0,0.7226890756302521,0.0,0.0,1.0,"[[0, 0, 0], [0, 0, 0], [0, 33, 86]]",292,0.0,0.0,0.0,0.0,0.0,0.0,0.0,0.0,"[[0, 0, 0], [0, 0, 0], [79, 213, 0]]",32956,0.5732188372375289,0.6351911460546841,0.21574840110309218,0.9712081294693263,0.9256385998107852,0.9061113849186792,0.4300654139410858,0.9989789667143149,"[[3677, 13366, 0], [301, 10322, 5], [80, 313, 4892]]",0.5003215475687197,pc1,-5.373509149123292,
single_pc1_threshold,non-bad pc1 <= -5.2989 -> good else medium,23322,0.5475516679530057,0.6003103311591409,0.15803442174682322,0.9962276529440709,0.9874765184721352,0.9904233870967742,0.36585953499578366,0.9989442567567568,"[[1965, 10469, 0], [18, 6074, 5], [1, 59, 4731]]",1157,0.30423509075194466,0.48580331682530753,0.1785345717234262,0.9904761904761905,0.9036144578313253,0.9942528735632183,0.1145374449339207,1.0,"[[173, 796, 0], [1, 104, 0], [0, 8, 75]]",8477,0.7116904565294326,0.5823480222638845,0.5010989010989011,0.9315408947130592,0.20924574209245742,0.824966078697422,0.6671521035598705,1.0,"[[1824, 1816, 0], [303, 4123, 0], [84, 241, 86]]",8066,0.7372923382097694,0.4760421930332974,0.5010989010989011,0.9315408947130592,0.0,0.8575458392101551,0.6942246169388786,0.0,"[[1824, 1816, 0], [303, 4123, 0], [0, 0, 0]]",119,0.7226890756302521,0.27967479674796747,0.0,0.0,0.7226890756302521,0.0,0.0,1.0,"[[0, 0, 0], [0, 0, 0], [0, 33, 86]]",292,0.0,0.0,0.0,0.0,0.0,0.0,0.0,0.0,"[[0, 0, 0], [0, 0, 0], [84, 208, 0]]",32956,0.581229518145406,0.643770209327799,0.23247080912984802,0.9692322167858487,0.9256385998107852,0.9068436713206683,0.434824820599409,0.9989789667143149,"[[3962, 13081, 0], [322, 10301, 5], [85, 308, 4892]]",0.5206648966628951,pc1,-5.29890586829975,
single_pc1_threshold,non-bad pc1 <= -5.2322 -> good else medium,23322,0.5549266786724981,0.6085165179184698,0.17210873411613317,0.9957356076759062,0.9874765184721352,0.9898242368177613,0.36964198733560644,0.9989442567567568,"[[2140, 10294, 0], [21, 6071, 5], [1, 59, 4731]]",1157,0.3197925669835782,0.4958130052859908,0.19711042311661506,0.9904761904761905,0.9036144578313253,0.9947916666666666,0.11685393258426967,1.0,"[[191, 778, 0], [1, 104, 0], [0, 8, 75]]",8477,0.7203019936298218,0.5903041188125521,0.5266483516483517,0.9270221418888387,0.20924574209245742,0.8241616509028374,0.6765045342126957,1.0,"[[1917, 1723, 0], [323, 4103, 0], [86, 239, 86]]",8066,0.7463426729481776,0.48415666695862897,0.5266483516483517,0.9270221418888387,0.0,0.8558035714285714,0.7042567799519396,0.0,"[[1917, 1723, 0], [323, 4103, 0], [0, 0, 0]]",119,0.7226890756302521,0.27967479674796747,0.0,0.0,0.7226890756302521,0.0,0.0,1.0,"[[0, 0, 0], [0, 0, 0], [0, 33, 86]]",292,0.0,0.0,0.0,0.0,0.0,0.0,0.0,0.0,"[[0, 0, 0], [0, 0, 0], [86, 206, 0]]",32956,0.5892098555649957,0.652160466654871,0.24925189227248723,0.96706812194204,0.9256385998107852,0.9076923076923077,0.4396253047606827,0.9989789667143149,"[[4248, 12795, 0], [345, 10278, 5], [87, 306, 4892]]",0.5399375431731663,pc1,-5.23218469326899,
single_pc1_threshold,non-bad pc1 <= -5.1709 -> good else medium,23322,0.5622159334533916,0.616485528052758,0.18602219720122246,0.9952435624077415,0.9874765184721352,0.9893071000855432,0.37346134908911865,0.9989442567567568,"[[2313, 10121, 0], [24, 6068, 5], [1, 59, 4731]]",1157,0.33707865168539325,0.5066749077934621,0.21775025799793601,0.9904761904761905,0.9036144578313253,0.9952830188679245,0.11954022988505747,1.0,"[[211, 758, 0], [1, 104, 0], [0, 8, 75]]",8477,0.7257284416656836,0.5955725284113206,0.5467032967032966,0.920921825576141,0.20924574209245742,0.8202802967848309,0.6833193629505449,1.0,"[[1990, 1650, 0], [350, 4076, 0], [86, 239, 86]]",8066,0.7520456236052566,0.48951544110347694,0.5467032967032966,0.920921825576141,0.0,0.8504273504273504,0.7118407265106531,0.0,"[[1990, 1650, 0], [350, 4076, 0], [0, 0, 0]]",119,0.7226890756302521,0.27967479674796747,0.0,0.0,0.7226890756302521,0.0,0.0,1.0,"[[0, 0, 0], [0, 0, 0], [0, 33, 86]]",292,0.0,0.0,0.0,0.0,0.0,0.0,0.0,0.0,"[[0, 0, 0], [0, 0, 0], [86, 206, 0]]",32956,0.5963709188008254,0.6596374687695282,0.2648594730974594,0.9642453895370718,0.9256385998107852,0.9071543408360129,0.44396308971970716,0.9989789667143149,"[[4514, 12529, 0], [375, 10248, 5], [87, 306, 4892]]",0.5613515948512455,pc1,-5.1708519308901275,
single_pc1_threshold,non-bad pc1 <= -5.1095 -> good else medium,23322,0.5693765543263871,0.6241829153578343,0.19969438635998069,0.9947515171395769,0.9874765184721352,0.9888490641178813,0.37729393468118194,0.9989442567567568,"[[2483, 9951, 0], [27, 6065, 5], [1, 59, 4731]]",1157,0.35695764909248057,0.518852934167485,0.24148606811145512,0.9904761904761905,0.9036144578313253,0.9957446808510638,0.12278630460448642,1.0,"[[234, 735, 0], [1, 104, 0], [0, 8, 75]]",8477,0.733042349887932,0.6020941860377972,0.5695054945054945,0.9161771351107094,0.20924574209245742,0.8180741910023678,0.6923339593648625,1.0,"[[2073, 1567, 0], [371, 4055, 0], [90, 235, 86]]",8066,0.7597322092734937,0.4961951207510982,0.5695054945054945,0.9161771351107094,0.0,0.8481996726677578,0.7212735681252224,0.0,"[[2073, 1567, 0], [371, 4055, 0], [0, 0, 0]]",119,0.7226890756302521,0.27967479674796747,0.0,0.0,0.7226890756302521,0.0,0.0,1.0,"[[0, 0, 0], [0, 0, 0], [0, 33, 86]]",292,0.0,0.0,0.0,0.0,0.0,0.0,0.0,0.0,"[[0, 0, 0], [0, 0, 0], [90, 202, 0]]",32956,0.6040174778492535,0.6673841623216942,0.28105380508126504,0.9619872036130975,0.9256385998107852,0.9071969696969697,0.4488344527854603,0.9989789667143149,"[[4790, 12253, 0], [399, 10224, 5], [91, 302, 4892]]",0.5859777542810367,pc1,-5.109517202813399,
single_pc1_threshold,non-bad pc1 <= -5.0551 -> good else medium,23322,0.5764514192607838,0.6316958122189514,0.21336657551873894,0.9939314416926357,0.9874765184721352,0.9877140729709606,0.38113207547169814,0.9989442567567568,"[[2653, 9781, 0], [32, 6060, 5], [1, 59, 4731]]",1157,0.37510803802938636,0.5297031004273794,0.2631578947368421,0.9904761904761905,0.9036144578313253,0.99609375,0.12590799031476999,1.0,"[[255, 714, 0], [1, 104, 0], [0, 8, 75]]",8477,0.7384687979237938,0.6068243050378492,0.5865384615384616,0.912562132851333,0.20924574209245742,0.8158196408100878,0.6995150675441635,1.0,"[[2135, 1505, 0], [387, 4039, 0], [95, 230, 86]]",8066,0.7654351599305728,0.5010625080911891,0.5865384615384616,0.912562132851333,0.0,0.8465503568596352,0.7285353535353535,0.0,"[[2135, 1505, 0], [387, 4039, 0], [0, 0, 0]]",119,0.7226890756302521,0.27967479674796747,0.0,0.0,0.7226890756302521,0.0,0.0,1.0,"[[0, 0, 0], [0, 0, 0], [0, 33, 86]]",292,0.0,0.0,0.0,0.0,0.0,0.0,0.0,0.0,"[[0, 0, 0], [0, 0, 0], [95, 197, 0]]",32956,0.6110571671319335,0.6743765032875659,0.29589860939975354,0.9600112909296199,0.9256385998107852,0.9071775499190502,0.4534666666666667,0.9989789667143149,"[[5043, 12000, 0], [420, 10203, 5], [96, 297, 4892]]",0.6084625085430199,pc1,-5.055134155925653,
single_pc1_threshold,non-bad pc1 <= -5.0003 -> good else medium,23322,0.5836549181030787,0.6392055128479525,0.22719961396171787,0.9932753813350829,0.9874765184721352,0.9870719776380154,0.38514372933095903,0.9989442567567568,"[[2825, 9609, 0], [36, 6056, 5], [1, 59, 4731]]",1157,0.3923941227312014,0.5398182279247369,0.2837977296181631,0.9904761904761905,0.9036144578313253,0.9963768115942029,0.12903225806451613,1.0,"[[275, 694, 0], [1, 104, 0], [0, 8, 75]]",8477,0.7440132122213047,0.6116961798701817,0.6052197802197802,0.9078174423859015,0.20924574209245742,0.8135155096011817,0.7070209396445539,1.0,"[[2203, 1437, 0], [408, 4018, 0], [97, 228, 86]]",8066,0.7712620877758493,0.5060417442476147,0.6052197802197802,0.9078174423859015,0.0,0.8437380314055918,0.7365719523373052,0.0,"[[2203, 1437, 0], [408, 4018, 0], [0, 0, 0]]",119,0.7226890756302521,0.27967479674796747,0.0,0.0,0.7226890756302521,0.0,0.0,1.0,"[[0, 0, 0], [0, 0, 0], [0, 33, 86]]",292,0.0,0.0,0.0,0.0,0.0,0.0,0.0,0.0,"[[0, 0, 0], [0, 0, 0], [97, 195, 0]]",32956,0.6181878868794757,0.6813710191255944,0.31115413952942556,0.9576590139254799,0.9256385998107852,0.9071159767362299,0.45820015306352135,0.9989789667143149,"[[5303, 11740, 0], [445, 10178, 5], [98, 295, 4892]]",0.6298765602210992,pc1,-5.0003053529461265,
single_pc1_threshold,non-bad pc1 <= -4.9501 -> good else medium,23322,0.5908584169453734,0.6466485883023244,0.24135435097313818,0.9919632606199771,0.9874765184721352,0.9852265265922522,0.3891891891891892,0.9989442567567568,"[[3001, 9433, 0], [44, 6048, 5], [1, 59, 4731]]",1157,0.40276577355229043,0.5457926919333725,0.2961816305469556,0.9904761904761905,0.9036144578313253,0.9965277777777778,0.1309823677581864,1.0,"[[287, 682, 0], [1, 104, 0], [0, 8, 75]]",8477,0.7487318626872714,0.6157838660062591,0.6217032967032967,0.903298689561681,0.20924574209245742,0.8105300859598854,0.7140560814431148,1.0,"[[2263, 1377, 0], [428, 3998, 0], [101, 224, 86]]",8066,0.7762211753037441,0.5102433600556514,0.6217032967032967,0.903298689561681,0.0,0.8409513192121888,0.7438139534883721,0.0,"[[2263, 1377, 0], [428, 3998, 0], [0, 0, 0]]",119,0.7226890756302521,0.27967479674796747,0.0,0.0,0.7226890756302521,0.0,0.0,1.0,"[[0, 0, 0], [0, 0, 0], [0, 33, 86]]",292,0.0,0.0,0.0,0.0,0.0,0.0,0.0,0.0,"[[0, 0, 0], [0, 0, 0], [101, 191, 0]]",32956,0.6248634543027066,0.6878437991855627,0.32570556826849734,0.955024463680843,0.9256385998107852,0.906137773424747,0.4627729904709798,0.9989789667143149,"[[5551, 11492, 0], [473, 10150, 5], [102, 291, 4892]]",0.6427249912279467,pc1,-4.950070635018419,
single_pc1_threshold,non-bad pc1 <= -4.8957 -> good else medium,23322,0.5981047937569677,0.6539899677672754,0.2554286633424481,0.9909791700836477,0.9874765184721352,0.9841958475364115,0.3933849860016928,0.9989442567567568,"[[3176, 9258, 0], [50, 6042, 5], [1, 59, 4731]]",1157,0.4157303370786517,0.5531679911834171,0.31166150670794635,0.9904761904761905,0.9036144578313253,0.9966996699669967,0.13350449293966624,1.0,"[[302, 667, 0], [1, 104, 0], [0, 8, 75]]",8477,0.7514450867052023,0.6182562275810745,0.6343406593406593,0.8981021238138274,0.20924574209245742,0.8053714684339031,0.7195872556118754,1.0,"[[2309, 1331, 0], [451, 3975, 0], [107, 218, 86]]",8066,0.7790726506322837,0.5128184083436087,0.6343406593406593,0.8981021238138274,0.0,0.8365942028985507,0.7491519035054656,0.0,"[[2309, 1331, 0], [451, 3975, 0], [0, 0, 0]]",119,0.7226890756302521,0.27967479674796747,0.0,0.0,0.7226890756302521,0.0,0.0,1.0,"[[0, 0, 0], [0, 0, 0], [0, 33, 86]]",292,0.0,0.0,0.0,0.0,0.0,0.0,0.0,0.0,"[[0, 0, 0], [0, 0, 0], [107, 185, 0]]",32956,0.6311445563782012,0.6938547102602257,0.33955289561696883,0.9522958223560406,0.9256385998107852,0.9046428013131155,0.467223709722094,0.9989789667143149,"[[5787, 11256, 0], [502, 10121, 5], [108, 285, 4892]]",0.6587855299865061,pc1,-4.8957477261870554,
single_pc1_threshold,non-bad pc1 <= -4.8443 -> good else medium,23322,0.6053082925992626,0.6611767564005306,0.26942255106964774,0.9899950795473184,0.9874765184721352,0.9832697387731142,0.39765465445681536,0.9989442567567568,"[[3350, 9084, 0], [56, 6036, 5], [1, 59, 4731]]",1157,0.42955920484010374,0.5609290816296337,0.3281733746130031,0.9904761904761905,0.9036144578313253,0.9968652037617555,0.1363040629095675,1.0,"[[318, 651, 0], [1, 104, 0], [0, 8, 75]]",8477,0.7563996696944674,0.6223009822100362,0.6497252747252747,0.8949389968368731,0.20924574209245742,0.8036017669045192,0.7270558002936858,1.0,"[[2365, 1275, 0], [465, 3961, 0], [113, 212, 86]]",8066,0.7842796925365733,0.5169931740217604,0.6497252747252747,0.8949389968368731,0.0,0.8356890459363958,0.7564935064935064,0.0,"[[2365, 1275, 0], [465, 3961, 0], [0, 0, 0]]",119,0.7226890756302521,0.27967479674796747,0.0,0.0,0.7226890756302521,0.0,0.0,1.0,"[[0, 0, 0], [0, 0, 0], [0, 33, 86]]",292,0.0,0.0,0.0,0.0,0.0,0.0,0.0,0.0,"[[0, 0, 0], [0, 0, 0], [113, 179, 0]]",32956,0.6380021847311567,0.7002417579858422,0.3539869741242739,0.9504140007527286,0.9256385998107852,0.9046333783175888,0.47223001402524545,0.9989789667143149,"[[6033, 11010, 0], [522, 10101, 5], [114, 279, 4892]]",0.6759167713289694,pc1,-4.84434651038479,
single_pc1_threshold,non-bad pc1 <= -4.7963 -> good else medium,23322,0.6120830117485636,0.6679011228970797,0.28309474022840597,0.9880268984746596,0.9874765184721352,0.9807745890220118,0.40168033606721343,0.9989442567567568,"[[3520, 8914, 0], [68, 6024, 5], [1, 59, 4731]]",1157,0.44165946413137425,0.5676371488646823,0.34262125902992774,0.9904761904761905,0.9036144578313253,0.996996996996997,0.13885180240320427,1.0,"[[332, 637, 0], [1, 104, 0], [0, 8, 75]]",8477,0.7593488262356966,0.6248629684595883,0.6623626373626373,0.8901943063714415,0.20924574209245742,0.7999336429993364,0.7327506044262599,1.0,"[[2411, 1229, 0], [486, 3940, 0], [117, 208, 86]]",8066,0.7873791222415075,0.5196361040901075,0.6623626373626373,0.8901943063714415,0.0,0.8322402485329652,0.7622364093635132,0.0,"[[2411, 1229, 0], [486, 3940, 0], [0, 0, 0]]",119,0.7226890756302521,0.27967479674796747,0.0,0.0,0.7226890756302521,0.0,0.0,1.0,"[[0, 0, 0], [0, 0, 0], [0, 33, 86]]",292,0.0,0.0,0.0,0.0,0.0,0.0,0.0,0.0,"[[0, 0, 0], [0, 0, 0], [117, 175, 0]]",32956,0.6439798519237772,0.7058233020250727,0.3674822507774453,0.9473089951072639,0.9256385998107852,0.9029700115340253,0.4766368413577617,0.9989789667143149,"[[6263, 10780, 0], [555, 10068, 5], [118, 275, 4892]]",0.6909066075036249,pc1,-4.796291432492812,
single_pc1_threshold,non-bad pc1 <= -4.7394 -> good else medium,23322,0.6191149987136609,0.6747522863661243,0.2970886279556056,0.9863867475807774,0.9874765184721352,0.9790617545719587,0.4059947343549585,0.9989442567567568,"[[3694, 8740, 0], [78, 6014, 5], [1, 59, 4731]]",1157,0.4520311149524633,0.573330017567791,0.35500515995872034,0.9904761904761905,0.9036144578313253,0.9971014492753624,0.14111261872455902,1.0,"[[344, 625, 0], [1, 104, 0], [0, 8, 75]]",8477,0.76170815146868,0.6269094092795573,0.6730769230769231,0.885901491188432,0.20924574209245742,0.7964889466840052,0.7377234242709313,1.0,"[[2450, 1190, 0], [505, 3921, 0], [121, 204, 86]]",8066,0.789858666005455,0.5217527552997173,0.6730769230769231,0.885901491188432,0.0,0.8291032148900169,0.7671688514967717,0.0,"[[2450, 1190, 0], [505, 3921, 0], [0, 0, 0]]",119,0.7226890756302521,0.27967479674796747,0.0,0.0,0.7226890756302521,0.0,0.0,1.0,"[[0, 0, 0], [0, 0, 0], [0, 33, 86]]",292,0.0,0.0,0.0,0.0,0.0,0.0,0.0,0.0,"[[0, 0, 0], [0, 0, 0], [121, 171, 0]]",32956,0.6499271756281102,0.7112765680478939,0.3806841518511999,0.9445803537824614,0.9256385998107852,0.9018626633305532,0.48114066618739515,0.9989789667143149,"[[6488, 10555, 0], [584, 10039, 5], [122, 271, 4892]]",0.7037550385104725,pc1,-4.739418720549283,
single_pc1_threshold,non-bad pc1 <= -4.6824 -> good else medium,23322,0.6264042534945545,0.6817385542284788,0.3114846388933569,0.9849106117762835,0.9874765184721352,0.9777833880333249,0.4105982905982906,0.9989442567567568,"[[3873, 8561, 0], [87, 6005, 5], [1, 59, 4731]]",1157,0.4589455488331893,0.5770980144205744,0.3632610939112487,0.9904761904761905,0.9036144578313253,0.9971671388101983,0.14266117969821673,1.0,"[[352, 617, 0], [1, 104, 0], [0, 8, 75]]",8477,0.7643034092249616,0.6292162512399687,0.6862637362637363,0.8800271125169453,0.20924574209245742,0.7925126903553299,0.7434624928421455,1.0,"[[2498, 1142, 0], [531, 3895, 0], [123, 202, 86]]",8066,0.7925861641457972,0.5241146577245993,0.6862637362637363,0.8800271125169453,0.0,0.824694618686035,0.7732777446892992,0.0,"[[2498, 1142, 0], [531, 3895, 0], [0, 0, 0]]",119,0.7226890756302521,0.27967479674796747,0.0,0.0,0.7226890756302521,0.0,0.0,1.0,"[[0, 0, 0], [0, 0, 0], [0, 33, 86]]",292,0.0,0.0,0.0,0.0,0.0,0.0,0.0,0.0,"[[0, 0, 0], [0, 0, 0], [123, 169, 0]]",32956,0.655995873285593,0.7167923054399493,0.39447280408378804,0.9412871659766654,0.9256385998107852,0.9004821859094562,0.48579614432088575,0.9989789667143149,"[[6723, 10320, 0], [619, 10004, 5], [124, 269, 4892]]",0.7123206591817041,pc1,-4.682352861811985,
single_pc1_threshold,non-bad pc1 <= -4.6235 -> good else medium,23322,0.6339936540605436,0.6888766623521864,0.32612192375743926,0.9840905363293423,0.9874765184721352,0.977579556412729,0.415570023548968,0.9989442567567568,"[[4055, 8379, 0], [92, 6000, 5], [1, 59, 4731]]",1157,0.46672428694900603,0.5813125289932487,0.37254901960784315,0.9904761904761905,0.9036144578313253,0.9972375690607734,0.14444444444444443,1.0,"[[361, 608, 0], [1, 104, 0], [0, 8, 75]]",8477,0.7686681609059809,0.6327038293309646,0.7013736263736263,0.8759602349751469,0.20924574209245742,0.7904024767801857,0.7512110056190661,1.0,"[[2553, 1087, 0], [549, 3877, 0], [128, 197, 86]]",8066,0.7971733201090999,0.5277047109936736,0.7013736263736263,0.8759602349751469,0.0,0.8230174081237911,0.7810233682514102,0.0,"[[2553, 1087, 0], [549, 3877, 0], [0, 0, 0]]",119,0.7226890756302521,0.27967479674796747,0.0,0.0,0.7226890756302521,0.0,0.0,1.0,"[[0, 0, 0], [0, 0, 0], [0, 33, 86]]",292,0.0,0.0,0.0,0.0,0.0,0.0,0.0,0.0,"[[0, 0, 0], [0, 0, 0], [128, 164, 0]]",32956,0.6627624711736861,0.7227837832860597,0.4089068825910931,0.9391230711328566,0.9256385998107852,0.9003875968992248,0.4912151188542743,0.9989789667143149,"[[6969, 10074, 0], [642, 9981, 5], [129, 264, 4892]]",0.7219569824368397,pc1,-4.623476583301204,
single_pc1_threshold,non-bad pc1 <= -4.5659 -> good else medium,23322,0.6417974444730298,0.6961173243562082,0.34116133183207337,0.9832704608824012,0.9874765184721352,0.9774193548387097,0.4208198792643549,0.9989442567567568,"[[4242, 8192, 0], [97, 5995, 5], [1, 59, 4731]]",1157,0.4701815038893691,0.583177713899655,0.3766769865841073,0.9904761904761905,0.9036144578313253,0.9972677595628415,0.1452513966480447,1.0,"[[365, 604, 0], [1, 104, 0], [0, 8, 75]]",8477,0.7705556210923676,0.6343685598712827,0.7120879120879121,0.8707636692272933,0.20924574209245742,0.7868852459016393,0.756131057484795,1.0,"[[2592, 1048, 0], [572, 3854, 0], [130, 195, 86]]",8066,0.7991569551202579,0.5294113643170247,0.7120879120879121,0.8707636692272933,0.0,0.8192161820480405,0.7862097103223175,0.0,"[[2592, 1048, 0], [572, 3854, 0], [0, 0, 0]]",119,0.7226890756302521,0.27967479674796747,0.0,0.0,0.7226890756302521,0.0,0.0,1.0,"[[0, 0, 0], [0, 0, 0], [0, 33, 86]]",292,0.0,0.0,0.0,0.0,0.0,0.0,0.0,0.0,"[[0, 0, 0], [0, 0, 0], [130, 162, 0]]",32956,0.6688918558077437,0.7281737081045563,0.4224021592442645,0.9364885208882198,0.9256385998107852,0.899875,0.49618625056084553,0.9989789667143149,"[[7199, 9844, 0], [670, 9953, 5], [131, 262, 4892]]",0.7262397927724557,pc1,-4.565914882540958,
single_pc1_threshold,non-bad pc1 <= -4.4992 -> good else medium,23322,0.6491724551925221,0.7028912738986316,0.35563776741193504,0.9819583401672954,0.9874765184721352,0.9765901060070671,0.4258785033432921,0.9989442567567568,"[[4422, 8012, 0], [105, 5987, 5], [1, 59, 4731]]",1157,0.47796024200518583,0.5873574477077314,0.38596491228070173,0.9904761904761905,0.9036144578313253,0.9973333333333333,0.1471004243281471,1.0,"[[374, 595, 0], [1, 104, 0], [0, 8, 75]]",8477,0.7740946089418427,0.6371374043326017,0.7244505494505494,0.8673746046091279,0.20924574209245742,0.785055075915451,0.7629173290937997,1.0,"[[2637, 1003, 0], [587, 3839, 0], [135, 190, 86]]",8066,0.8028762707661791,0.5322661980516966,0.7244505494505494,0.8673746046091279,0.0,0.8179280397022333,0.7928541924824453,0.0,"[[2637, 1003, 0], [587, 3839, 0], [0, 0, 0]]",119,0.7226890756302521,0.27967479674796747,0.0,0.0,0.7226890756302521,0.0,0.0,1.0,"[[0, 0, 0], [0, 0, 0], [0, 33, 86]]",292,0.0,0.0,0.0,0.0,0.0,0.0,0.0,0.0,"[[0, 0, 0], [0, 0, 0], [135, 157, 0]]",32956,0.6752943318363879,0.7337123047512252,0.4361321363609693,0.934324426044411,0.9256385998107852,0.8996610990075042,0.5015911501742688,0.9989789667143149,"[[7433, 9610, 0], [693, 9930, 5], [136, 257, 4892]]",0.7358761160275913,pc1,-4.49920277521106,
single_pc1_threshold,non-bad pc1 <= -4.4419 -> good else medium,23322,0.6566760998199125,0.7096774412414053,0.37003377834968637,0.9813022798097425,0.9874765184721352,0.976650392697941,0.43120720720720723,0.9989442567567568,"[[4601, 7833, 0], [109, 5983, 5], [1, 59, 4731]]",1157,0.4891961970613656,0.5933561081335594,0.3993808049535604,0.9904761904761905,0.9036144578313253,0.9974226804123711,0.14985590778097982,1.0,"[[387, 582, 0], [1, 104, 0], [0, 8, 75]]",8477,0.7770437654830719,0.6395009442772573,0.7370879120879121,0.8626299141436964,0.20924574209245742,0.7819877586709414,0.769758064516129,1.0,"[[2683, 957, 0], [608, 3818, 0], [140, 185, 86]]",8066,0.8059757004711133,0.5347042163814996,0.7370879120879121,0.8626299141436964,0.0,0.8152537222728654,0.7995811518324607,0.0,"[[2683, 957, 0], [608, 3818, 0], [0, 0, 0]]",119,0.7226890756302521,0.27967479674796747,0.0,0.0,0.7226890756302521,0.0,0.0,1.0,"[[0, 0, 0], [0, 0, 0], [0, 33, 86]]",292,0.0,0.0,0.0,0.0,0.0,0.0,0.0,0.0,"[[0, 0, 0], [0, 0, 0], [140, 152, 0]]",32956,0.681757494841607,0.7392455351197501,0.45009681394120754,0.931972149040271,0.9256385998107852,0.8992966002344666,0.5071944287981975,0.9989789667143149,"[[7671, 9372, 0], [718, 9905, 5], [141, 252, 4892]]",0.7497952496183428,pc1,-4.441936543143949,
single_pc1_threshold,non-bad pc1 <= -4.3808 -> good else medium,23322,0.6643512563245004,0.7165506782221137,0.3849927617822101,0.980154174184025,0.9874765184721352,0.9761419249592169,0.436778248794036,0.9989442567567568,"[[4787, 7647, 0], [116, 5976, 5], [1, 59, 4731]]",1157,0.49178910976663787,0.5947343443452058,0.4024767801857585,0.9904761904761905,0.9036144578313253,0.9974424552429667,0.15050651230101303,1.0,"[[390, 579, 0], [1, 104, 0], [0, 8, 75]]",8477,0.7776335967913177,0.640183640887569,0.7464285714285714,0.8560777225485766,0.20924574209245742,0.7769516728624535,0.7742133224356355,1.0,"[[2717, 923, 0], [637, 3789, 0], [143, 182, 86]]",8066,0.8065955864121002,0.5354119933835668,0.7464285714285714,0.8560777225485766,0.0,0.810077519379845,0.8041171477079796,0.0,"[[2717, 923, 0], [637, 3789, 0], [0, 0, 0]]",119,0.7226890756302521,0.27967479674796747,0.0,0.0,0.7226890756302521,0.0,0.0,1.0,"[[0, 0, 0], [0, 0, 0], [0, 33, 86]]",292,0.0,0.0,0.0,0.0,0.0,0.0,0.0,0.0,"[[0, 0, 0], [0, 0, 0], [143, 149, 0]]",32956,0.6874317271513534,0.744088186999908,0.46318136478319544,0.9285848701543093,0.9256385998107852,0.8978616924476797,0.512222971920901,0.9989789667143149,"[[7894, 9149, 0], [754, 9869, 5], [144, 249, 4892]]",0.7530073573700546,pc1,-4.38078413447441,
single_pc1_threshold,non-bad pc1 <= -4.3187 -> good else medium,23322,0.6720692907983878,0.7233785000402034,0.3999517452147338,0.9791700836476955,0.9874765184721352,0.9758634222919937,0.4425500370644922,0.9989442567567568,"[[4973, 7461, 0], [122, 5970, 5], [1, 59, 4731]]",1157,0.49524632670700086,0.596568653734844,0.4066047471620227,0.9904761904761905,0.9036144578313253,0.9974683544303797,0.15138282387190685,1.0,"[[394, 575, 0], [1, 104, 0], [0, 8, 75]]",8477,0.7790491919311077,0.6414639116529671,0.7574175824175824,0.8497514685946679,0.20924574209245742,0.773352033660589,0.7793203481143804,1.0,"[[2757, 883, 0], [665, 3761, 0], [143, 182, 86]]",8066,0.8080833126704686,0.5367086979179839,0.7574175824175824,0.8497514685946679,0.0,0.8056691992986558,0.8098621877691645,0.0,"[[2757, 883, 0], [665, 3761, 0], [0, 0, 0]]",119,0.7226890756302521,0.27967479674796747,0.0,0.0,0.7226890756302521,0.0,0.0,1.0,"[[0, 0, 0], [0, 0, 0], [0, 33, 86]]",292,0.0,0.0,0.0,0.0,0.0,0.0,0.0,0.0,"[[0, 0, 0], [0, 0, 0], [143, 149, 0]]",32956,0.6933790508556864,0.7490985994324442,0.47667664143636684,0.925385773428679,0.9256385998107852,0.8970848056537103,0.5175498605483345,0.9989789667143149,"[[8124, 8919, 0], [788, 9835, 5], [144, 249, 4892]]",0.7572901677056705,pc1,-4.31870241798174,
single_pc1_threshold,non-bad pc1 <= -4.2529 -> good else medium,23322,0.6801732269959695,0.7304569823891162,0.41531285185780925,0.9788420534689192,0.9874765184721352,0.9763660427301948,0.4488230427916071,0.9989442567567568,"[[5164, 7270, 0], [124, 5968, 5], [1, 59, 4731]]",1157,0.4978392394122731,0.5979419577066503,0.40970072239422084,0.9904761904761905,0.9036144578313253,0.9974874371859297,0.15204678362573099,1.0,"[[397, 572, 0], [1, 104, 0], [0, 8, 75]]",8477,0.7807007195941961,0.6428050373740787,0.7664835164835165,0.8454586534116584,0.20924574209245742,0.7707182320441989,0.7843219450848878,1.0,"[[2790, 850, 0], [684, 3742, 0], [146, 179, 86]]",8066,0.8098189933052319,0.5380882047273751,0.7664835164835165,0.8454586534116584,0.0,0.8031088082901554,0.8148954703832753,0.0,"[[2790, 850, 0], [684, 3742, 0], [0, 0, 0]]",119,0.7226890756302521,0.27967479674796747,0.0,0.0,0.7226890756302521,0.0,0.0,1.0,"[[0, 0, 0], [0, 0, 0], [0, 33, 86]]",292,0.0,0.0,0.0,0.0,0.0,0.0,0.0,0.0,"[[0, 0, 0], [0, 0, 0], [146, 146, 0]]",32956,0.6996298094428935,0.7542789747023431,0.48999589274188815,0.9234098607452014,0.9256385998107852,0.8972816159879661,0.5233575085324232,0.9989789667143149,"[[8351, 8692, 0], [809, 9814, 5], [147, 246, 4892]]",0.7605022754573824,pc1,-4.25285734642871,
single_pc1_threshold,non-bad pc1 <= -4.1897 -> good else medium,23322,0.6880627733470542,0.7372835724131427,0.43043268457455364,0.9781859931113662,0.9874765184721352,0.976464148877942,0.4550934757726059,0.9989442567567568,"[[5352, 7082, 0], [128, 5964, 5], [1, 59, 4731]]",1157,0.5012964563526361,0.5997699042209167,0.41382868937048506,0.9904761904761905,0.9036144578313253,0.9975124378109452,0.15294117647058825,1.0,"[[401, 568, 0], [1, 104, 0], [0, 8, 75]]",8477,0.7810546183791436,0.6431901250752782,0.7733516483516484,0.8404880253050158,0.20924574209245742,0.7661948829613501,0.7886368454526181,1.0,"[[2815, 825, 0], [706, 3720, 0], [153, 172, 86]]",8066,0.8101909248698239,0.5385140084763603,0.7733516483516484,0.8404880253050158,0.0,0.7994887815961375,0.8184818481848185,0.0,"[[2815, 825, 0], [706, 3720, 0], [0, 0, 0]]",119,0.7226890756302521,0.27967479674796747,0.0,0.0,0.7226890756302521,0.0,0.0,1.0,"[[0, 0, 0], [0, 0, 0], [0, 33, 86]]",292,0.0,0.0,0.0,0.0,0.0,0.0,0.0,0.0,"[[0, 0, 0], [0, 0, 0], [153, 139, 0]]",32956,0.7054254157057895,0.75904796969639,0.502728392888576,0.9209634926608957,0.9256385998107852,0.8965156429842001,0.5290238893092639,0.9989789667143149,"[[8568, 8475, 0], [835, 9788, 5], [154, 239, 4892]]",0.7647850857929982,pc1,-4.189677238207494,
single_pc1_threshold,non-bad pc1 <= -4.1277 -> good else medium,23322,0.6957808078209416,0.7439008015284759,0.44539166800707736,0.9772019025750369,0.9874765184721352,0.9762030671602326,0.4613954929141176,0.9989442567567568,"[[5538, 6896, 0], [134, 5958, 5], [1, 59, 4731]]",1157,0.5047536732929991,0.6015944072567356,0.4179566563467492,0.9904761904761905,0.9036144578313253,0.9975369458128078,0.15384615384615385,1.0,"[[405, 564, 0], [1, 104, 0], [0, 8, 75]]",8477,0.7805827533325469,0.6430178775811058,0.7791208791208791,0.8348395842747401,0.20924574209245742,0.7619559376679205,0.7913900192760762,1.0,"[[2836, 804, 0], [731, 3695, 0], [155, 170, 86]]",8066,0.8096950161170344,0.5383412770316026,0.7791208791208791,0.8348395842747401,0.0,0.7950658816932997,0.8212936208046232,0.0,"[[2836, 804, 0], [731, 3695, 0], [0, 0, 0]]",119,0.7226890756302521,0.27967479674796747,0.0,0.0,0.7226890756302521,0.0,0.0,1.0,"[[0, 0, 0], [0, 0, 0], [0, 33, 86]]",292,0.0,0.0,0.0,0.0,0.0,0.0,0.0,0.0,"[[0, 0, 0], [0, 0, 0], [155, 137, 0]]",32956,0.710887243597524,0.7635129938323998,0.5151088423399636,0.9180466691757622,0.9256385998107852,0.8957249260279563,0.5343958812575309,0.9989789667143149,"[[8779, 8264, 0], [866, 9757, 5], [156, 237, 4892]]",0.769067896128614,pc1,-4.127728368885612,
single_pc1_threshold,non-bad pc1 <= -4.0673 -> good else medium,23322,0.7037132321413258,0.7506369795194341,0.46059192536593213,0.976545842217484,0.9874765184721352,0.9763041254688033,0.4680817610062893,0.9989442567567568,"[[5727, 6707, 0], [138, 5954, 5], [1, 59, 4731]]",1157,0.5073465859982714,0.6029606093747581,0.42105263157894735,0.9904761904761905,0.9036144578313253,0.9975550122249389,0.15453194650817237,1.0,"[[408, 561, 0], [1, 104, 0], [0, 8, 75]]",8477,0.7822342809956353,0.6443602762093805,0.789010989010989,0.8298689561680976,0.20924574209245742,0.7597883597883598,0.7965734114075038,1.0,"[[2872, 768, 0], [753, 3673, 0], [155, 170, 86]]",8066,0.8114306967517977,0.539701716785223,0.789010989010989,0.8298689561680976,0.0,0.7922758620689655,0.8270659761315019,0.0,"[[2872, 768, 0], [753, 3673, 0], [0, 0, 0]]",119,0.7226890756302521,0.27967479674796747,0.0,0.0,0.7226890756302521,0.0,0.0,1.0,"[[0, 0, 0], [0, 0, 0], [0, 33, 86]]",292,0.0,0.0,0.0,0.0,0.0,0.0,0.0,0.0,"[[0, 0, 0], [0, 0, 0], [155, 137, 0]]",32956,0.7170166282315815,0.768470898263172,0.5284867687613684,0.9156003010914565,0.9256385998107852,0.895773247140726,0.5404910019995557,0.9989789667143149,"[[9007, 8036, 0], [892, 9731, 5], [156, 237, 4892]]",0.772280003880326,pc1,-4.067270224830496,
single_pc1_threshold,non-bad pc1 <= -3.9916 -> good else medium,23322,0.71164565646171,0.7573156750971913,0.4756313334405662,0.9762178120387076,0.9874765184721352,0.9767134599504542,0.47498204452956666,0.9989442567567568,"[[5914, 6520, 0], [140, 5952, 5], [1, 59, 4731]]",1157,0.5116681071737251,0.6047954990122666,0.42724458204334365,0.9809523809523809,0.9036144578313253,0.9951923076923077,0.15465465465465467,1.0,"[[414, 555, 0], [2, 103, 0], [0, 8, 75]]",8477,0.7840037749203728,0.6457219112198482,0.7978021978021979,0.8260280162675102,0.20924574209245742,0.7576310983563788,0.8021061869240895,1.0,"[[2904, 736, 0], [770, 3656, 0], [159, 166, 86]]",8066,0.8132903545747583,0.5411021642471557,0.7978021978021979,0.8260280162675102,0.0,0.7904191616766467,0.8324225865209471,0.0,"[[2904, 736, 0], [770, 3656, 0], [0, 0, 0]]",119,0.7226890756302521,0.27967479674796747,0.0,0.0,0.7226890756302521,0.0,0.0,1.0,"[[0, 0, 0], [0, 0, 0], [0, 33, 86]]",292,0.0,0.0,0.0,0.0,0.0,0.0,0.0,0.0,"[[0, 0, 0], [0, 0, 0], [159, 133, 0]]",32956,0.7232370433305013,0.7734562884931449,0.5416886698351229,0.9137184794881446,0.9256385998107852,0.8959627329192547,0.5469445226696705,0.9989789667143149,"[[9232, 7811, 0], [912, 9711, 5], [160, 233, 4892]]",0.7778399151486589,pc1,-3.991580335731346,
single_pc1_threshold,non-bad pc1 <= -3.9237 -> good else medium,23322,0.7193636909355973,0.7637636381932679,0.49050989223097957,0.9753977365917664,0.9874765184721352,0.9766212970376301,0.4818896361721092,0.9989442567567568,"[[6099, 6335, 0], [145, 5947, 5], [1, 59, 4731]]",1157,0.5168539325842697,0.6075100778561436,0.43343653250773995,0.9809523809523809,0.9036144578313253,0.995260663507109,0.15606060606060607,1.0,"[[420, 549, 0], [2, 103, 0], [0, 8, 75]]",8477,0.7844756399669695,0.6461595172432971,0.8041208791208792,0.8217352010845007,0.20924574209245742,0.7547705002578649,0.8058940837580324,1.0,"[[2927, 713, 0], [789, 3637, 0], [162, 163, 86]]",8066,0.8137862633275478,0.5415547849201995,0.8041208791208792,0.8217352010845007,0.0,0.7876749192680301,0.8360919540229885,0.0,"[[2927, 713, 0], [789, 3637, 0], [0, 0, 0]]",119,0.7226890756302521,0.27967479674796747,0.0,0.0,0.7226890756302521,0.0,0.0,1.0,"[[0, 0, 0], [0, 0, 0], [0, 33, 86]]",292,0.0,0.0,0.0,0.0,0.0,0.0,0.0,0.0,"[[0, 0, 0], [0, 0, 0], [162, 130, 0]]",32956,0.7290023061051099,0.7780463707333573,0.5542451446341606,0.9114602935641701,0.9256385998107852,0.8957799905168327,0.553100376841384,0.9989789667143149,"[[9446, 7597, 0], [936, 9687, 5], [163, 230, 4892]]",0.7842641306520828,pc1,-3.9236540331899286,
single_pc1_threshold,non-bad pc1 <= -3.8466 -> good else medium,23322,0.7274247491638796,0.7704498231636453,0.505870998874055,0.9749056913236017,0.9874765184721352,0.9768597608324274,0.48933893142339674,0.9989442567567568,"[[6290, 6144, 0], [148, 5944, 5], [1, 59, 4731]]",1157,0.5185825410544511,0.6084135193945072,0.43550051599587203,0.9809523809523809,0.9036144578313253,0.9952830188679245,0.15653495440729484,1.0,"[[422, 547, 0], [2, 103, 0], [0, 8, 75]]",8477,0.7856553025834612,0.6470885000436218,0.8120879120879121,0.8174423859014912,0.20924574209245742,0.7519715085220046,0.8112107623318385,1.0,"[[2956, 684, 0], [808, 3618, 0], [167, 158, 86]]",8066,0.8150260352095214,0.5425144053890821,0.8120879120879121,0.8174423859014912,0.0,0.7853347502656748,0.8410041841004184,0.0,"[[2956, 684, 0], [808, 3618, 0], [0, 0, 0]]",119,0.7226890756302521,0.27967479674796747,0.0,0.0,0.7226890756302521,0.0,0.0,1.0,"[[0, 0, 0], [0, 0, 0], [0, 33, 86]]",292,0.0,0.0,0.0,0.0,0.0,0.0,0.0,0.0,"[[0, 0, 0], [0, 0, 0], [167, 125, 0]]",32956,0.7350710037625926,0.7828439688296281,0.5672710203602652,0.9093902898005269,0.9256385998107852,0.8956827867333704,0.5598030697943817,0.9989789667143149,"[[9668, 7375, 0], [958, 9665, 5], [168, 225, 4892]]",0.7864055358198906,pc1,-3.846628518616905,
single_pc1_threshold,non-bad pc1 <= -3.7705 -> good else medium,23322,0.7351856616070663,0.7768443599789867,0.5206691330223581,0.9744136460554371,0.9874765184721352,0.9770600664050709,0.4967391304347826,0.9989442567567568,"[[6474, 5960, 0], [151, 5941, 5], [1, 59, 4731]]",1157,0.526361279170268,0.6124708621080021,0.44478844169246645,0.9809523809523809,0.9036144578313253,0.9953810623556582,0.15870570107858242,1.0,"[[431, 538, 0], [2, 103, 0], [0, 8, 75]]",8477,0.7853014037985137,0.6469829856983208,0.820054945054945,0.8102123813827383,0.20924574209245742,0.7468101075806856,0.8161128812016386,1.0,"[[2985, 655, 0], [840, 3586, 0], [172, 153, 86]]",8066,0.8146541036449293,0.5424129058048234,0.820054945054945,0.8102123813827383,0.0,0.7803921568627451,0.845555293562839,0.0,"[[2985, 655, 0], [840, 3586, 0], [0, 0, 0]]",119,0.7226890756302521,0.27967479674796747,0.0,0.0,0.7226890756302521,0.0,0.0,1.0,"[[0, 0, 0], [0, 0, 0], [0, 33, 86]]",292,0.0,0.0,0.0,0.0,0.0,0.0,0.0,0.0,"[[0, 0, 0], [0, 0, 0], [172, 120, 0]]",32956,0.7407452360723389,0.787298076806363,0.5802968960863698,0.9060971019947309,0.9256385998107852,0.8945369030390738,0.5663706404752102,0.9989789667143149,"[[9890, 7153, 0], [993, 9630, 5], [173, 220, 4892]]",0.7960418590750263,pc1,-3.770537691090453,
single_pc1_threshold,non-bad pc1 <= -3.6875 -> good else medium,23322,0.7426464282651574,0.782946384570891,0.5353064178864404,0.9731015253403313,0.9874765184721352,0.9765258215962441,0.5040781648258283,0.9989442567567568,"[[6656, 5778, 0], [159, 5933, 5], [1, 59, 4731]]",1157,0.5315471045808124,0.6151689314966493,0.45098039215686275,0.9809523809523809,0.9036144578313253,0.9954441913439636,0.16018662519440124,1.0,"[[437, 532, 0], [2, 103, 0], [0, 8, 75]]",8477,0.7858912351067595,0.6475368395660065,0.829945054945055,0.8032083145051966,0.20924574209245742,0.742807966560118,0.8221554116558741,1.0,"[[3021, 619, 0], [871, 3555, 0], [175, 150, 86]]",8066,0.8152739895859162,0.5429738541911102,0.829945054945055,0.8032083145051966,0.0,0.776207605344296,0.8517010062290369,0.0,"[[3021, 619, 0], [871, 3555, 0], [0, 0, 0]]",119,0.7226890756302521,0.27967479674796747,0.0,0.0,0.7226890756302521,0.0,0.0,1.0,"[[0, 0, 0], [0, 0, 0], [0, 33, 86]]",292,0.0,0.0,0.0,0.0,0.0,0.0,0.0,0.0,"[[0, 0, 0], [0, 0, 0], [175, 117, 0]]",32956,0.7463587814055104,0.7916707280105943,0.593440122044241,0.9024275498682724,0.9256385998107852,0.893305069775658,0.5730417637569457,0.9989789667143149,"[[10114, 6929, 0], [1032, 9591, 5], [176, 217, 4892]]",0.8024660745784501,pc1,-3.687462602807048,
single_pc1_threshold,non-bad pc1 <= -3.6124 -> good else medium,23322,0.7502358288311466,0.7891240148479727,0.5499437027505227,0.9722814498933902,0.9874765184721352,0.9764386691417963,0.5117845117845118,0.9989442567567568,"[[6838, 5596, 0], [164, 5928, 5], [1, 59, 4731]]",1157,0.5393258426966292,0.6192070348193468,0.4602683178534572,0.9809523809523809,0.9036144578313253,0.9955357142857143,0.16246056782334384,1.0,"[[446, 523, 0], [2, 103, 0], [0, 8, 75]]",8477,0.7854193700601628,0.6472955784563679,0.8357142857142857,0.797559873474921,0.20924574209245742,0.7387081107333657,0.8261174818628598,1.0,"[[3042, 598, 0], [896, 3530, 0], [180, 145, 86]]",8066,0.8147780808331267,0.5427317413975321,0.8357142857142857,0.797559873474921,0.0,0.7724733367191468,0.8551356589147286,0.0,"[[3042, 598, 0], [896, 3530, 0], [0, 0, 0]]",119,0.7226890756302521,0.27967479674796747,0.0,0.0,0.7226890756302521,0.0,0.0,1.0,"[[0, 0, 0], [0, 0, 0], [0, 33, 86]]",292,0.0,0.0,0.0,0.0,0.0,0.0,0.0,0.0,"[[0, 0, 0], [0, 0, 0], [180, 112, 0]]",32956,0.7518812962738196,0.7959489868035186,0.605879246611512,0.8996048174633045,0.9256385998107852,0.8925576972944939,0.579805942995755,0.9989789667143149,"[[10326, 6717, 0], [1062, 9561, 5], [181, 212, 4892]]",0.8121023978335857,pc1,-3.6123829763978668,
single_pc1_threshold,non-bad pc1 <= -3.5300 -> good else medium,23322,0.7579109853357345,0.7953404164831475,0.5647418368988258,0.9714613744464491,0.9874765184721352,0.9763626251390434,0.5198350008776549,0.9989442567567568,"[[7022, 5412, 0], [169, 5923, 5], [1, 59, 4731]]",1157,0.5453759723422644,0.6223412695636991,0.4674922600619195,0.9809523809523809,0.9036144578313253,0.9956043956043956,0.16427432216905902,1.0,"[[453, 516, 0], [2, 103, 0], [0, 8, 75]]",8477,0.784829538751917,0.64700991647604,0.843956043956044,0.789652056032535,0.20924574209245742,0.7340501792114695,0.8309557774607703,1.0,"[[3072, 568, 0], [931, 3495, 0], [182, 143, 86]]",8066,0.8141581948921398,0.542430455483046,0.843956043956044,0.789652056032535,0.0,0.7674244316762429,0.8602018213142998,0.0,"[[3072, 568, 0], [931, 3495, 0], [0, 0, 0]]",119,0.7226890756302521,0.27967479674796747,0.0,0.0,0.7226890756302521,0.0,0.0,1.0,"[[0, 0, 0], [0, 0, 0], [0, 33, 86]]",292,0.0,0.0,0.0,0.0,0.0,0.0,0.0,0.0,"[[0, 0, 0], [0, 0, 0], [182, 110, 0]]",32956,0.7573734676538415,0.8001689212112933,0.6188464472217332,0.8958411742566804,0.9256385998107852,0.8913962136578769,0.5867381524619462,0.9989789667143149,"[[10547, 6496, 0], [1102, 9521, 5], [183, 210, 4892]]",0.8195973159209134,pc1,-3.52998896066867,
single_pc1_threshold,non-bad pc1 <= -3.4463 -> good else medium,23322,0.7657147757482206,0.8016390391256327,0.5796203956892392,0.9709693291782844,0.9874765184721352,0.9765582655826558,0.5282884169195075,0.9989442567567568,"[[7207, 5227, 0], [172, 5920, 5], [1, 59, 4731]]",1157,0.5522904062229905,0.6259174079837594,0.4757481940144479,0.9809523809523809,0.9036144578313253,0.9956803455723542,0.16639741518578352,1.0,"[[461, 508, 0], [2, 103, 0], [0, 8, 75]]",8477,0.7870708977232511,0.6486452967877671,0.8552197802197802,0.7846814279258925,0.20924574209245742,0.7316098707403055,0.8397001934235977,1.0,"[[3113, 527, 0], [953, 3473, 0], [189, 136, 86]]",8066,0.8165137614678899,0.5440983519941356,0.8552197802197802,0.7846814279258925,0.0,0.765617314313822,0.86825,0.0,"[[3113, 527, 0], [953, 3473, 0], [0, 0, 0]]",119,0.7226890756302521,0.27967479674796747,0.0,0.0,0.7226890756302521,0.0,0.0,1.0,"[[0, 0, 0], [0, 0, 0], [0, 33, 86]]",292,0.0,0.0,0.0,0.0,0.0,0.0,0.0,0.0,"[[0, 0, 0], [0, 0, 0], [189, 103, 0]]",32956,0.7637152567059109,0.8050371515186856,0.6325764243384381,0.8934888972525404,0.9256385998107852,0.8911390312448338,0.5949501910907837,0.9989789667143149,"[[10781, 6262, 0], [1127, 9496, 5], [190, 203, 4892]]",0.8281629365921452,pc1,-3.446292272272037,
single_pc1_threshold,non-bad pc1 <= -3.3657 -> good else medium,23322,0.7728753966212161,0.8073774217709913,0.5937751327006595,0.9694931933737904,0.9874765184721352,0.975941837409121,0.5363397150893748,0.9989442567567568,"[[7383, 5051, 0], [181, 5911, 5], [1, 59, 4731]]",1157,0.5617977528089888,0.6308265996337435,0.4871001031991744,0.9809523809523809,0.9036144578313253,0.9957805907172996,0.16940789473684212,1.0,"[[472, 497, 0], [2, 103, 0], [0, 8, 75]]",8477,0.7873068302465495,0.6488882891107903,0.8634615384615385,0.7783551739719837,0.20924574209245742,0.7282205746061168,0.845398773006135,1.0,"[[3143, 497, 0], [981, 3445, 0], [192, 133, 86]]",8066,0.8167617158442847,0.5443363233882649,0.8634615384615385,0.7783551739719837,0.0,0.7621241513094084,0.873921867072552,0.0,"[[3143, 497, 0], [981, 3445, 0], [0, 0, 0]]",119,0.7226890756302521,0.27967479674796747,0.0,0.0,0.7226890756302521,0.0,0.0,1.0,"[[0, 0, 0], [0, 0, 0], [0, 33, 86]]",292,0.0,0.0,0.0,0.0,0.0,0.0,0.0,0.0,"[[0, 0, 0], [0, 0, 0], [192, 100, 0]]",32956,0.7691770845976453,0.809189005532661,0.6453089244851259,0.8900075272864133,0.9256385998107852,0.8901659247268312,0.6023306164034641,0.9989789667143149,"[[10998, 6045, 0], [1164, 9459, 5], [193, 200, 4892]]",0.8399406650150888,pc1,-3.3656710460820456,
single_pc1_threshold,non-bad pc1 <= -3.2908 -> good else medium,23322,0.7803361632793071,0.8133435297936331,0.6083319929226315,0.9683450877480728,0.9874765184721352,0.9756223397394557,0.5450013846579895,0.9989442567567568,"[[7564, 4870, 0], [188, 5904, 5], [1, 59, 4731]]",1157,0.5687121866897148,0.6343927836925319,0.4953560371517028,0.9809523809523809,0.9036144578313253,0.995850622406639,0.17166666666666666,1.0,"[[480, 489, 0], [2, 103, 0], [0, 8, 75]]",8477,0.7868349651999528,0.648625194192717,0.8697802197802198,0.772254857659286,0.20924574209245742,0.7248168498168498,0.8496147153865274,1.0,"[[3166, 474, 0], [1008, 3418, 0], [194, 131, 86]]",8066,0.8162658070914952,0.544057528611796,0.8697802197802198,0.772254857659286,0.0,0.7585050311451845,0.8782117163412128,0.0,"[[3166, 474, 0], [1008, 3418, 0], [0, 0, 0]]",119,0.7226890756302521,0.27967479674796747,0.0,0.0,0.7226890756302521,0.0,0.0,1.0,"[[0, 0, 0], [0, 0, 0], [0, 33, 86]]",292,0.0,0.0,0.0,0.0,0.0,0.0,0.0,0.0,"[[0, 0, 0], [0, 0, 0], [194, 98, 0]]",32956,0.774578225512805,0.8132779385347603,0.6577480490523969,0.8868084305607828,0.9256385998107852,0.8894707609299373,0.6097955486542443,0.9989789667143149,"[[11210, 5833, 0], [1198, 9425, 5], [195, 198, 4892]]",0.8485062856863205,pc1,-3.2907802690623114,
single_pc1_threshold,non-bad pc1 <= -3.2074 -> good else medium,23322,0.7877969299373981,0.8192967696303034,0.6228084285024932,0.9673609972117435,0.9874765184721352,0.9754377125582567,0.5539588616511694,0.9989442567567568,"[[7744, 4690, 0], [194, 5898, 5], [1, 59, 4731]]",1157,0.5773552290406223,0.6388478030509338,0.5056759545923633,0.9809523809523809,0.9036144578313253,0.9959349593495935,0.17457627118644067,1.0,"[[490, 479, 0], [2, 103, 0], [0, 8, 75]]",8477,0.7874247965081986,0.6490802017234952,0.8771978021978022,0.7672842295526434,0.20924574209245742,0.722071460877431,0.8556311413454271,1.0,"[[3193, 447, 0], [1030, 3396, 0], [199, 126, 86]]",8066,0.816885693032482,0.5445130903773109,0.8771978021978022,0.7672842295526434,0.0,0.7560975609756098,0.8836846213895394,0.0,"[[3193, 447, 0], [1030, 3396, 0], [0, 0, 0]]",119,0.7226890756302521,0.27967479674796747,0.0,0.0,0.7226890756302521,0.0,0.0,1.0,"[[0, 0, 0], [0, 0, 0], [0, 33, 86]]",292,0.0,0.0,0.0,0.0,0.0,0.0,0.0,0.0,"[[0, 0, 0], [0, 0, 0], [199, 93, 0]]",32956,0.7803131447991261,0.8176174698049264,0.6704805491990846,0.8841738803161461,0.9256385998107852,0.8890531393449,0.6179797448375641,0.9989789667143149,"[[11427, 5616, 0], [1226, 9397, 5], [200, 193, 4892]]",0.8592133115253601,pc1,-3.207414939363333,
single_pc1_threshold,non-bad pc1 <= -3.1350 -> good else medium,23322,0.795000428779693,0.8250150974875349,0.6371240147981342,0.9657208463178613,0.9874765184721352,0.974775439891719,0.5629601300315518,0.9989442567567568,"[[7922, 4512, 0], [204, 5888, 5], [1, 59, 4731]]",1157,0.5825410544511668,0.6409870342980387,0.5128998968008256,0.9714285714285714,0.9036144578313253,0.994,0.17525773195876287,1.0,"[[497, 472, 0], [3, 102, 0], [0, 8, 75]]",8477,0.7873068302465495,0.6490500061424364,0.8848901098901099,0.7607320379575238,0.20924574209245742,0.7188127650078108,0.8611253196930946,1.0,"[[3221, 419, 0], [1059, 3367, 0], [201, 124, 86]]",8066,0.8167617158442847,0.5444677740220848,0.8848901098901099,0.7607320379575238,0.0,0.7525700934579439,0.8893291072371896,0.0,"[[3221, 419, 0], [1059, 3367, 0], [0, 0, 0]]",119,0.7226890756302521,0.27967479674796747,0.0,0.0,0.7226890756302521,0.0,0.0,1.0,"[[0, 0, 0], [0, 0, 0], [0, 33, 86]]",292,0.0,0.0,0.0,0.0,0.0,0.0,0.0,0.0,"[[0, 0, 0], [0, 0, 0], [201, 91, 0]]",32956,0.7855625682728486,0.8215469617564649,0.6829783488822391,0.880410237109522,0.9256385998107852,0.8880073237717424,0.6258444251220654,0.9989789667143149,"[[11640, 5403, 0], [1266, 9357, 5], [202, 191, 4892]]",0.865843925377597,pc1,-3.134963518800017,
single_pc1_threshold,non-bad pc1 <= -3.0605 -> good else medium,23322,0.8017751479289941,0.8303718392137448,0.6507962039568924,0.9637526652452025,0.9874765184721352,0.9738837405223252,0.5717621874087769,0.9989442567567568,"[[8092, 4342, 0], [216, 5876, 5], [1, 59, 4731]]",1157,0.5946413137424373,0.647210357667101,0.5273477812177503,0.9714285714285714,0.9036144578313253,0.9941634241245136,0.1795774647887324,1.0,"[[511, 458, 0], [3, 102, 0], [0, 8, 75]]",8477,0.7857732688451103,0.6480325919734155,0.8901098901098901,0.7535020334387709,0.20924574209245742,0.7146007940008823,0.8646616541353384,1.0,"[[3240, 400, 0], [1091, 3335, 0], [203, 122, 86]]",8066,0.8151500123977188,0.5434162446268779,0.8901098901098901,0.7535020334387709,0.0,0.7480951281459247,0.892904953145917,0.0,"[[3240, 400, 0], [1091, 3335, 0], [0, 0, 0]]",119,0.7226890756302521,0.27967479674796747,0.0,0.0,0.7226890756302521,0.0,0.0,1.0,"[[0, 0, 0], [0, 0, 0], [0, 33, 86]]",292,0.0,0.0,0.0,0.0,0.0,0.0,0.0,0.0,"[[0, 0, 0], [0, 0, 0], [203, 89, 0]]",32956,0.7903871829105474,0.825129915221391,0.6948893974065599,0.8762702295822355,0.9256385998107852,0.8866511941304185,0.633451231125017,0.9989789667143149,"[[11843, 5200, 0], [1310, 9313, 5], [204, 189, 4892]]",0.8808337615522525,pc1,-3.0605355301438255,
single_pc1_threshold,non-bad pc1 <= -2.9885 -> good else medium,23322,0.8078638195695051,0.8351414068652924,0.6637445713366575,0.9606363785468263,0.9874765184721352,0.9721993167628696,0.580073289095771,0.9989442567567568,"[[8253, 4181, 0], [235, 5857, 5], [1, 59, 4731]]",1157,0.6084701815038893,0.6543349317761206,0.543859649122807,0.9714285714285714,0.9036144578313253,0.9943396226415094,0.18478260869565216,1.0,"[[527, 442, 0], [3, 102, 0], [0, 8, 75]]",8477,0.7841217411820219,0.646921320036481,0.893956043956044,0.7471757794848621,0.20924574209245742,0.7107907383136741,0.8672960923157619,1.0,"[[3254, 386, 0], [1119, 3307, 0], [205, 120, 86]]",8066,0.8134143317629556,0.5422708503493582,0.893956043956044,0.7471757794848621,0.0,0.7441115938714841,0.8954779312212293,0.0,"[[3254, 386, 0], [1119, 3307, 0], [0, 0, 0]]",119,0.7226890756302521,0.27967479674796747,0.0,0.0,0.7226890756302521,0.0,0.0,1.0,"[[0, 0, 0], [0, 0, 0], [0, 33, 86]]",292,0.0,0.0,0.0,0.0,0.0,0.0,0.0,0.0,"[[0, 0, 0], [0, 0, 0], [205, 87, 0]]",32956,0.794756645223935,0.8283471717350368,0.7060963445402805,0.8718479488144524,0.9256385998107852,0.8850481723909686,0.6407135942469921,0.9989789667143149,"[[12034, 5009, 0], [1357, 9266, 5], [206, 187, 4892]]",0.8979650028947158,pc1,-2.9884815048089877,
single_pc1_threshold,non-bad pc1 <= -2.9197 -> good else medium,23322,0.814724294657405,0.8405482276561612,0.6776580344217468,0.9585041823847794,0.9874765184721352,0.9712968299711816,0.5896478660074664,0.9989442567567568,"[[8426, 4008, 0], [248, 5844, 5], [1, 59, 4731]]",1157,0.6153846153846154,0.6573271769181008,0.5531475748194015,0.9619047619047619,0.9036144578313253,0.9925925925925926,0.1863468634686347,1.0,"[[536, 433, 0], [4, 101, 0], [0, 8, 75]]",8477,0.7815264834257403,0.645156517955431,0.896978021978022,0.7397198373248983,0.20924574209245742,0.706098615916955,0.8691266259623042,1.0,"[[3265, 375, 0], [1152, 3274, 0], [207, 118, 86]]",8066,0.8106868336226134,0.5404577319518964,0.896978021978022,0.7397198373248983,0.0,0.7391894951324428,0.8972321183885996,0.0,"[[3265, 375, 0], [1152, 3274, 0], [0, 0, 0]]",119,0.7226890756302521,0.27967479674796747,0.0,0.0,0.7226890756302521,0.0,0.0,1.0,"[[0, 0, 0], [0, 0, 0], [0, 33, 86]]",292,0.0,0.0,0.0,0.0,0.0,0.0,0.0,0.0,"[[0, 0, 0], [0, 0, 0], [207, 85, 0]]",32956,0.7991867945138973,0.831598607800713,0.7174206419057677,0.8674256680466692,0.9256385998107852,0.8835175952019655,0.6483122362869198,0.9989789667143149,"[[12227, 4816, 0], [1404, 9219, 5], [208, 185, 4892]]",0.9067370219147608,pc1,-2.919665316056609,
single_pc1_threshold,non-bad pc1 <= -2.8345 -> good else medium,23322,0.8213275019295087,0.8457430135147286,0.6911693742962843,0.9562079711333442,0.9874765184721352,0.9703059726769787,0.5992393873984994,0.9989442567567568,"[[8594, 3840, 0], [262, 5830, 5], [1, 59, 4731]]",1157,0.6274848746758859,0.6635803707988651,0.5675954592363261,0.9619047619047619,0.9036144578313253,0.9927797833935018,0.19128787878787878,1.0,"[[550, 419, 0], [4, 101, 0], [0, 8, 75]]",8477,0.7796390232393535,0.6438714332959753,0.9013736263736264,0.7324898328061455,0.20924574209245742,0.7019683354728284,0.8722087705138553,1.0,"[[3281, 359, 0], [1184, 3242, 0], [209, 116, 86]]",8066,0.8087031986114555,0.5391324842096132,0.9013736263736264,0.7324898328061455,0.0,0.7348264277715566,0.9003054707025826,0.0,"[[3281, 359, 0], [1184, 3242, 0], [0, 0, 0]]",119,0.7226890756302521,0.27967479674796747,0.0,0.0,0.7226890756302521,0.0,0.0,1.0,"[[0, 0, 0], [0, 0, 0], [0, 33, 86]]",292,0.0,0.0,0.0,0.0,0.0,0.0,0.0,0.0,"[[0, 0, 0], [0, 0, 0], [209, 83, 0]]",32956,0.8037990047335841,0.8349799237219906,0.7290383148506718,0.8630974783590516,0.9256385998107852,0.8821441249556266,0.6564333762702161,0.9989789667143149,"[[12425, 4618, 0], [1450, 9173, 5], [210, 183, 4892]]",0.9217268580894162,pc1,-2.83451312770971,
single_pc1_threshold,non-bad pc1 <= -2.7647 -> good else medium,23322,0.828016465140211,0.8510174651985135,0.7046807141708219,0.9542397900606856,0.9874765184721352,0.969569547416178,0.6092784584773274,0.9989442567567568,"[[8762, 3672, 0], [274, 5818, 5], [1, 59, 4731]]",1157,0.6395851339671564,0.6692530707141051,0.5830753353973168,0.9523809523809523,0.9036144578313253,0.9912280701754386,0.1953125,1.0,"[[565, 404, 0], [5, 100, 0], [0, 8, 75]]",8477,0.7768078329597735,0.6419319929989895,0.9046703296703297,0.7243560777225486,0.20924574209245742,0.6967837494710114,0.8747612551159618,1.0,"[[3293, 347, 0], [1220, 3206, 0], [213, 112, 86]]",8066,0.8057277460947185,0.5371367614631689,0.9046703296703297,0.7243560777225486,0.0,0.7296698426767118,0.9023360540388404,0.0,"[[3293, 347, 0], [1220, 3206, 0], [0, 0, 0]]",119,0.7226890756302521,0.27967479674796747,0.0,0.0,0.7226890756302521,0.0,0.0,1.0,"[[0, 0, 0], [0, 0, 0], [0, 33, 86]]",292,0.0,0.0,0.0,0.0,0.0,0.0,0.0,0.0,"[[0, 0, 0], [0, 0, 0], [213, 79, 0]]",32956,0.8082291540235466,0.8382097854960507,0.7404799624479258,0.8584870154309372,0.9256385998107852,0.880485592688202,0.6647238816843946,0.9989789667143149,"[[12620, 4423, 0], [1499, 9124, 5], [214, 179, 4892]]",0.9369230926128849,pc1,-2.7647175295119903,
single_pc1_threshold,non-bad pc1 <= -2.6918 -> good else medium,23322,0.8339336249035245,0.8556026552517583,0.7179507801190285,0.9498113826472036,0.9874765184721352,0.967172264355363,0.6189610944848226,0.9989442567567568,"[[8927, 3507, 0], [301, 5791, 5], [2, 58, 4731]]",1157,0.6421780466724287,0.669981044165551,0.587203302373581,0.9428571428571428,0.9036144578313253,0.9895652173913043,0.1952662721893491,1.0,"[[569, 400, 0], [6, 99, 0], [0, 8, 75]]",8477,0.7752742715583343,0.6408744532427795,0.9096153846153846,0.7173520108450068,0.20924574209245742,0.6929677689409794,0.8787711043454193,1.0,"[[3311, 329, 0], [1251, 3175, 0], [216, 109, 86]]",8066,0.8041160426481527,0.5360402259918972,0.9096153846153846,0.7173520108450068,0.0,0.7257781674704077,0.906107305936073,0.0,"[[3311, 329, 0], [1251, 3175, 0], [0, 0, 0]]",119,0.7226890756302521,0.27967479674796747,0.0,0.0,0.7226890756302521,0.0,0.0,1.0,"[[0, 0, 0], [0, 0, 0], [0, 33, 86]]",292,0.0,0.0,0.0,0.0,0.0,0.0,0.0,0.0,"[[0, 0, 0], [0, 0, 0], [216, 76, 0]]",32956,0.8121131205243355,0.8409906582499409,0.7514522091181131,0.8529356417011668,0.9256385998107852,0.8782143591853528,0.6726773523300683,0.9989789667143149,"[[12807, 4236, 0], [1558, 9065, 5], [218, 175, 4892]]",0.94034159871341,pc1,-2.691757260434417,
single_pc1_threshold,non-bad pc1 <= -2.6264 -> good else medium,23322,0.8403653202984307,0.8606477539700131,0.731462119993566,0.9468591110382155,0.9874765184721352,0.9659090909090909,0.6295528898582333,0.9989442567567568,"[[9095, 3339, 0], [319, 5773, 5], [2, 58, 4731]]",1157,0.6473638720829732,0.671408655806654,0.5954592363261094,0.9238095238095239,0.9036144578313253,0.9863247863247864,0.19517102615694165,1.0,"[[577, 392, 0], [8, 97, 0], [0, 8, 75]]",8477,0.7731508788486493,0.6394047654978925,0.9126373626373626,0.710799819249887,0.20924574209245742,0.6892116182572614,0.8809857182861943,1.0,"[[3322, 318, 0], [1280, 3146, 0], [218, 107, 86]]",8066,0.8018844532606001,0.5345267221267269,0.9126373626373626,0.710799819249887,0.0,0.7218600608431117,0.9081986143187067,0.0,"[[3322, 318, 0], [1280, 3146, 0], [0, 0, 0]]",119,0.7226890756302521,0.27967479674796747,0.0,0.0,0.7226890756302521,0.0,0.0,1.0,"[[0, 0, 0], [0, 0, 0], [0, 33, 86]]",292,0.0,0.0,0.0,0.0,0.0,0.0,0.0,0.0,"[[0, 0, 0], [0, 0, 0], [218, 74, 0]]",32956,0.8163005219079985,0.8440181687400427,0.7624244557883002,0.8483251787730524,0.9256385998107852,0.8767289656568382,0.681069647983079,0.9989789667143149,"[[12994, 4049, 0], [1607, 9016, 5], [220, 173, 4892]]",0.9471786109144602,pc1,-2.626391972662452,
single_pc1_threshold,non-bad pc1 <= -2.5458 -> good else medium,23322,0.8463253580310437,0.8652947955990195,0.7444909120154415,0.9430867639822864,0.9874765184721352,0.9641703989167795,0.6399554813578185,0.9989442567567568,"[[9257, 3177, 0], [342, 5750, 5], [2, 58, 4731]]",1157,0.6568712186689715,0.6763539931631533,0.6068111455108359,0.9238095238095239,0.9036144578313253,0.9865771812080537,0.19958847736625515,1.0,"[[588, 381, 0], [8, 97, 0], [0, 8, 75]]",8477,0.7712634186622626,0.6380770317155909,0.9184065934065934,0.702440126525079,0.20924574209245742,0.6851813896290223,0.885250569476082,1.0,"[[3343, 297, 0], [1317, 3109, 0], [219, 106, 86]]",8066,0.7999008182494421,0.5331548461465884,0.9184065934065934,0.702440126525079,0.0,0.717381974248927,0.9128009395184967,0.0,"[[3343, 297, 0], [1317, 3109, 0], [0, 0, 0]]",119,0.7226890756302521,0.27967479674796747,0.0,0.0,0.7226890756302521,0.0,0.0,1.0,"[[0, 0, 0], [0, 0, 0], [0, 33, 86]]",292,0.0,0.0,0.0,0.0,0.0,0.0,0.0,0.0,"[[0, 0, 0], [0, 0, 0], [219, 73, 0]]",32956,0.8203665493385119,0.8469123471293111,0.7738074282696709,0.8426797139631163,0.9256385998107852,0.8747678429291589,0.6898251559731957,0.9989789667143149,"[[13188, 3855, 0], [1667, 8956, 5], [221, 172, 4892]]",0.9589563393374038,pc1,-2.5457634430004075,
single_pc1_threshold,non-bad pc1 <= -2.5400 -> good else medium,23322,0.8467970156933368,0.865667532659153,0.7454560077207656,0.9429227488928982,0.9874765184721352,0.9641148325358851,0.6407712884529648,0.9989442567567568,"[[9269, 3165, 0], [343, 5749, 5], [2, 58, 4731]]",1157,0.658599827139153,0.6772567250628434,0.608875128998968,0.9238095238095239,0.9036144578313253,0.9866220735785953,0.20041322314049587,1.0,"[[590, 379, 0], [8, 97, 0], [0, 8, 75]]",8477,0.7713813849239117,0.6381560956805704,0.9189560439560439,0.7022141888838681,0.20924574209245742,0.685170012290045,0.8857224280421773,1.0,"[[3345, 295, 0], [1318, 3108, 0], [219, 106, 86]]",8066,0.8000247954376395,0.5332346668684588,0.9189560439560439,0.7022141888838681,0.0,0.7173493459146473,0.9133117837202468,0.0,"[[3345, 295, 0], [1318, 3108, 0], [0, 0, 0]]",119,0.7226890756302521,0.27967479674796747,0.0,0.0,0.7226890756302521,0.0,0.0,1.0,"[[0, 0, 0], [0, 0, 0], [0, 33, 86]]",292,0.0,0.0,0.0,0.0,0.0,0.0,0.0,0.0,"[[0, 0, 0], [0, 0, 0], [219, 73, 0]]",32956,0.8207913581745357,0.8472273567537121,0.7747462301238045,0.8424915318027851,0.9256385998107852,0.8747846826553597,0.690628615503278,0.9989789667143149,"[[13204, 3839, 0], [1669, 8954, 5], [221, 172, 4892]]",0.9610977445052117,pc1,-2.54,
single_pc1_threshold,non-bad pc1 <= -2.4757 -> good else medium,23322,0.8527141754566504,0.8703358547251671,0.757760977963648,0.9404625225520747,0.9874765184721352,0.9631977100797383,0.6512948659700136,0.9989442567567568,"[[9422, 3012, 0], [358, 5734, 5], [2, 58, 4731]]",1157,0.6681071737251513,0.6815752461322081,0.6212590299277606,0.9142857142857143,0.9036144578313253,0.9852700490998363,0.20382165605095542,1.0,"[[602, 367, 0], [9, 96, 0], [0, 8, 75]]",8477,0.7676064645511383,0.6355282840904013,0.9211538461538461,0.693176683235427,0.20924574209245742,0.6797080883843503,0.8872180451127819,1.0,"[[3353, 287, 0], [1358, 3068, 0], [222, 103, 86]]",8066,0.7960575254153236,0.5305350626085371,0.9211538461538461,0.693176683235427,0.0,0.711738484398217,0.9144560357675112,0.0,"[[3353, 287, 0], [1358, 3068, 0], [0, 0, 0]]",119,0.7226890756302521,0.27967479674796747,0.0,0.0,0.7226890756302521,0.0,0.0,1.0,"[[0, 0, 0], [0, 0, 0], [0, 33, 86]]",292,0.0,0.0,0.0,0.0,0.0,0.0,0.0,0.0,"[[0, 0, 0], [0, 0, 0], [222, 70, 0]]",32956,0.8243415463041631,0.8497418094036893,0.7848970251716247,0.8372224313135115,0.9256385998107852,0.8728304841445909,0.6988141050812848,0.9989789667143149,"[[13377, 3666, 0], [1725, 8898, 5], [224, 169, 4892]]",0.9730818712769684,pc1,-2.47574373735218,
single_pc1_threshold,non-bad pc1 <= -2.4038 -> good else medium,23322,0.8587599691278621,0.8750684963452705,0.7710310439118546,0.9365261604067574,0.9874765184721352,0.9614883161167386,0.6627974463145676,0.9989442567567568,"[[9587, 2847, 0], [382, 5710, 5], [2, 58, 4731]]",1157,0.6741573033707865,0.6847623352723907,0.628482972136223,0.9142857142857143,0.9036144578313253,0.9854368932038835,0.20689655172413793,1.0,"[[609, 360, 0], [9, 96, 0], [0, 8, 75]]",8477,0.7654830718414534,0.6340291674201278,0.9252747252747253,0.6857207410754632,0.20924574209245742,0.6756268806419258,0.8910745742806812,1.0,"[[3368, 272, 0], [1391, 3035, 0], [226, 99, 86]]",8066,0.7938259360277709,0.5289826217254922,0.9252747252747253,0.6857207410754632,0.0,0.7077117041395251,0.9177502267916541,0.0,"[[3368, 272, 0], [1391, 3035, 0], [0, 0, 0]]",119,0.7226890756302521,0.27967479674796747,0.0,0.0,0.7226890756302521,0.0,0.0,1.0,"[[0, 0, 0], [0, 0, 0], [0, 33, 86]]",292,0.0,0.0,0.0,0.0,0.0,0.0,0.0,0.0,"[[0, 0, 0], [0, 0, 0], [226, 66, 0]]",32956,0.8282861997815268,0.8525496494597933,0.7958692718418119,0.8318592397440723,0.9256385998107852,0.8709387440606139,0.7081297557068482,0.9989789667143149,"[[13564, 3479, 0], [1782, 8841, 5], [228, 165, 4892]]",0.9805767893642962,pc1,-2.4038396919114633,
single_pc1_threshold,non-bad pc1 <= -2.3292 -> good else medium,23322,0.8642054712288826,0.8792825480369574,0.7838185620073991,0.9312776775463343,0.9874765184721352,0.9590631765400511,0.6740265906932573,0.9989442567567568,"[[9746, 2688, 0], [414, 5678, 5], [2, 58, 4731]]",1157,0.6784788245462403,0.6870498014806955,0.6336429308565531,0.9142857142857143,0.9036144578313253,0.985553772070626,0.20915032679738563,1.0,"[[614, 355, 0], [9, 96, 0], [0, 8, 75]]",8477,0.7626518815618734,0.6320271399270366,0.9288461538461539,0.6773610483506552,0.20924574209245742,0.6710996427153633,0.8941246644795705,1.0,"[[3381, 259, 0], [1428, 2998, 0], [229, 96, 86]]",8066,0.7908504835110339,0.5269185711949791,0.9288461538461539,0.6773610483506552,0.0,0.7030567685589519,0.920478968375806,0.0,"[[3381, 259, 0], [1428, 2998, 0], [0, 0, 0]]",119,0.7226890756302521,0.27967479674796747,0.0,0.0,0.7226890756302521,0.0,0.0,1.0,"[[0, 0, 0], [0, 0, 0], [0, 33, 86]]",292,0.0,0.0,0.0,0.0,0.0,0.0,0.0,0.0,"[[0, 0, 0], [0, 0, 0], [229, 63, 0]]",32956,0.8315632965165676,0.8548048353589642,0.8062547673531655,0.8253669552126458,0.9256385998107852,0.8684193894963028,0.7169009480222295,0.9989789667143149,"[[13741, 3302, 0], [1851, 8772, 5], [231, 162, 4892]]",0.9859303022838161,pc1,-2.3292178460223694,
single_pc1_threshold,non-bad pc1 <= -2.2600 -> good else medium,23322,0.8686647800360175,0.8827082446832253,0.7947563133344057,0.926029194685911,0.9874765184721352,0.9566311713455954,0.6838662790697675,0.9989442567567568,"[[9882, 2552, 0], [446, 5646, 5], [2, 58, 4731]]",1157,0.6836646499567848,0.6891145691042103,0.6408668730650154,0.9047619047619048,0.9036144578313253,0.9841521394611727,0.2106430155210643,1.0,"[[621, 348, 0], [10, 95, 0], [0, 8, 75]]",8477,0.7605284888521883,0.6305166493369483,0.9321428571428572,0.6705829191143244,0.20924574209245742,0.6673878835562549,0.8974901723616571,1.0,"[[3393, 247, 0], [1458, 2968, 0], [233, 92, 86]]",8066,0.7886188941234813,0.5253536064547905,0.9321428571428572,0.6705829191143244,0.0,0.699443413729128,0.9231726283048212,0.0,"[[3393, 247, 0], [1458, 2968, 0], [0, 0, 0]]",119,0.7226890756302521,0.27967479674796747,0.0,0.0,0.7226890756302521,0.0,0.0,1.0,"[[0, 0, 0], [0, 0, 0], [0, 33, 86]]",292,0.0,0.0,0.0,0.0,0.0,0.0,0.0,0.0,"[[0, 0, 0], [0, 0, 0], [233, 59, 0]]",32956,0.8343548974390096,0.8567105725065685,0.8153494103150853,0.819439217162213,0.9256385998107852,0.8660641944531007,0.7249042783419344,0.9989789667143149,"[[13896, 3147, 0], [1914, 8709, 5], [235, 158, 4892]]",0.9925609161360529,pc1,-2.26,
single_pc1_threshold,non-bad pc1 <= -2.2550 -> good else medium,23322,0.86917931566761,0.8831022484473293,0.7960431076081711,0.9253731343283582,0.9874765184721352,0.956328502415459,0.6850412821758135,0.9989442567567568,"[[9898, 2536, 0], [450, 5642, 5], [2, 58, 4731]]",1157,0.6836646499567848,0.6891145691042103,0.6408668730650154,0.9047619047619048,0.9036144578313253,0.9841521394611727,0.2106430155210643,1.0,"[[621, 348, 0], [10, 95, 0], [0, 8, 75]]",8477,0.7602925563288899,0.6303509494718528,0.9321428571428572,0.6701310438319024,0.20924574209245742,0.6671254423908769,0.897428139183056,1.0,"[[3393, 247, 0], [1460, 2966, 0], [233, 92, 86]]",8066,0.7883709397470865,0.5251841274396337,0.9321428571428572,0.6701310438319024,0.0,0.6991551617556151,0.9231248054777467,0.0,"[[3393, 247, 0], [1460, 2966, 0], [0, 0, 0]]",119,0.7226890756302521,0.27967479674796747,0.0,0.0,0.7226890756302521,0.0,0.0,1.0,"[[0, 0, 0], [0, 0, 0], [0, 33, 86]]",292,0.0,0.0,0.0,0.0,0.0,0.0,0.0,0.0,"[[0, 0, 0], [0, 0, 0], [233, 59, 0]]",32956,0.8346583323218837,0.8569192602811532,0.816288212169219,0.8188746706812194,0.9256385998107852,0.865874151988548,0.7257338225483656,0.9989789667143149,"[[13912, 3131, 0], [1920, 8703, 5], [235, 158, 4892]]",0.9925609161360529,pc1,-2.2550417527178177,
single_pc1_threshold,non-bad pc1 <= -2.1844 -> good else medium,23322,0.8736815024440443,0.8865370960491359,0.8075438314299501,0.9191405609316057,0.9874765184721352,0.9534707055360364,0.6957169459962756,0.9989442567567568,"[[10041, 2393, 0], [488, 5604, 5], [2, 58, 4731]]",1157,0.6949006050129646,0.6944164728860039,0.6553147574819401,0.8952380952380953,0.9036144578313253,0.9829721362229102,0.21559633027522937,1.0,"[[635, 334, 0], [11, 94, 0], [0, 8, 75]]",8477,0.7574613660493099,0.6283258997555183,0.9351648351648352,0.6622232263895165,0.20924574209245742,0.6631599454510033,0.8996316758747698,1.0,"[[3404, 236, 0], [1495, 2931, 0], [234, 91, 86]]",8066,0.7853954872303496,0.5231033070242842,0.9351648351648352,0.6622232263895165,0.0,0.6948356807511737,0.9254815282601832,0.0,"[[3404, 236, 0], [1495, 2931, 0], [0, 0, 0]]",119,0.7226890756302521,0.27967479674796747,0.0,0.0,0.7226890756302521,0.0,0.0,1.0,"[[0, 0, 0], [0, 0, 0], [0, 33, 86]]",292,0.0,0.0,0.0,0.0,0.0,0.0,0.0,0.0,"[[0, 0, 0], [0, 0, 0], [234, 58, 0]]",32956,0.8375106202209006,0.8588171997545344,0.8261456316376224,0.811911930748965,0.9256385998107852,0.8632740649908032,0.734445484722104,0.9989789667143149,"[[14080, 2963, 0], [1994, 8629, 5], [236, 157, 4892]]",1.0066864480756177,pc1,-2.184445729668552,
single_pc1_threshold,non-bad pc1 <= -2.1154 -> good else medium,23322,0.8781836892204785,0.889964567575254,0.8192858291780601,0.9124159422666885,0.9874765184721352,0.9504571748460534,0.7070411794611083,0.9989442567567568,"[[10187, 2247, 0], [529, 5563, 5], [2, 58, 4731]]",1157,0.7026793431287813,0.6986179985100245,0.6646026831785345,0.8952380952380953,0.9036144578313253,0.983206106870229,0.22014051522248243,1.0,"[[644, 325, 0], [11, 94, 0], [0, 8, 75]]",8477,0.752624749321694,0.6248979938034572,0.9362637362637363,0.6520560325350203,0.20924574209245742,0.6575342465753424,0.8996259351620948,1.0,"[[3408, 232, 0], [1540, 2886, 0], [235, 90, 86]]",8066,0.7803124225142574,0.5195923088815141,0.9362637362637363,0.6520560325350203,0.0,0.6887631366208569,0.9255933290570879,0.0,"[[3408, 232, 0], [1540, 2886, 0], [0, 0, 0]]",119,0.7226890756302521,0.27967479674796747,0.0,0.0,0.7226890756302521,0.0,0.0,1.0,"[[0, 0, 0], [0, 0, 0], [0, 33, 86]]",292,0.0,0.0,0.0,0.0,0.0,0.0,0.0,0.0,"[[0, 0, 0], [0, 0, 0], [235, 57, 0]]",32956,0.8397256948658818,0.8601784609481801,0.8354749750630758,0.8038200978547234,0.9256385998107852,0.8600507368929693,0.7426758236981656,0.9989789667143149,"[[14239, 2804, 0], [2080, 8543, 5], [237, 156, 4892]]",1.0163227713307532,pc1,-2.115389985328493,
single_pc1_threshold,non-bad pc1 <= -2.0482 -> good else medium,23322,0.8822999742732184,0.8930684679323049,0.8305452790735082,0.9051992783336067,0.9874765184721352,0.9472573839662447,0.7182457053617908,0.9989442567567568,"[[10327, 2107, 0], [573, 5519, 5], [2, 58, 4731]]",1157,0.7130509939498704,0.7042871801220351,0.6769865841073271,0.8952380952380953,0.9036144578313253,0.9835082458770614,0.22650602409638554,1.0,"[[656, 313, 0], [11, 94, 0], [0, 8, 75]]",8477,0.7484959301639731,0.6219384236664699,0.9381868131868132,0.6425666516041573,0.20924574209245742,0.6527140672782875,0.9002849002849003,1.0,"[[3415, 225, 0], [1582, 2844, 0], [235, 90, 86]]",8066,0.7759732209273493,0.5165632580906535,0.9381868131868132,0.6425666516041573,0.0,0.6834100460276166,0.9266862170087976,0.0,"[[3415, 225, 0], [1582, 2844, 0], [0, 0, 0]]",119,0.7226890756302521,0.27967479674796747,0.0,0.0,0.7226890756302521,0.0,0.0,1.0,"[[0, 0, 0], [0, 0, 0], [0, 33, 86]]",292,0.0,0.0,0.0,0.0,0.0,0.0,0.0,0.0,"[[0, 0, 0], [0, 0, 0], [235, 57, 0]]",32956,0.8419407695108629,0.8615264250580225,0.844804318488529,0.7957282649604818,0.9256385998107852,0.8569727992381406,0.7511991472730503,0.9989789667143149,"[[14398, 2645, 0], [2166, 8457, 5], [237, 156, 4892]]",1.029171202337601,pc1,-2.0481536955369517,
single_pc1_threshold,non-bad pc1 <= -1.9796 -> good else medium,23322,0.8858159677557671,0.8956297799778566,0.8414026057584044,0.8965064785960308,0.9874765184721352,0.9433724075743913,0.7291889007470651,0.9989442567567568,"[[10462, 1972, 0], [626, 5466, 5], [2, 58, 4731]]",1157,0.7199654278305964,0.7081134922284846,0.6852425180598555,0.8952380952380953,0.9036144578313253,0.9837037037037037,0.23095823095823095,1.0,"[[664, 305, 0], [11, 94, 0], [0, 8, 75]]",8477,0.7438952459596555,0.6186065438034307,0.9414835164835165,0.631043831902395,0.20924574209245742,0.6469699830092506,0.9027149321266968,1.0,"[[3427, 213, 0], [1633, 2793, 0], [237, 88, 86]]",8066,0.7711381105876519,0.5131435771170748,0.9414835164835165,0.631043831902395,0.0,0.6772727272727272,0.9291417165668663,0.0,"[[3427, 213, 0], [1633, 2793, 0], [0, 0, 0]]",119,0.7226890756302521,0.27967479674796747,0.0,0.0,0.7226890756302521,0.0,0.0,1.0,"[[0, 0, 0], [0, 0, 0], [0, 33, 86]]",292,0.0,0.0,0.0,0.0,0.0,0.0,0.0,0.0,"[[0, 0, 0], [0, 0, 0], [237, 55, 0]]",32956,0.8434882874135211,0.8622888186421149,0.8538989614504489,0.7859427926232593,0.9256385998107852,0.852948071738366,0.7595707920341911,0.9989789667143149,"[[14553, 2490, 0], [2270, 8353, 5], [239, 154, 4892]]",1.0377368230088324,pc1,-1.9796075308062386,
single_pc1_threshold,non-bad pc1 <= -1.9169 -> good else medium,23322,0.8889889374839207,0.8979002835228309,0.8517773845906386,0.8874856486796785,0.9874765184721352,0.9394181302111052,0.7400164113785558,0.9989442567567568,"[[10591, 1843, 0], [681, 5411, 5], [2, 58, 4731]]",1157,0.7251512532411409,0.7087230069915815,0.6945304437564499,0.8666666666666667,0.9036144578313253,0.9796215429403202,0.23037974683544304,1.0,"[[673, 296, 0], [14, 91, 0], [0, 8, 75]]",8477,0.740710156895128,0.6162990761752467,0.9434065934065934,0.62336195210122,0.20924574209245742,0.6429507582849654,0.9045901639344263,1.0,"[[3434, 206, 0], [1667, 2759, 0], [240, 85, 86]]",8066,0.7677907265063229,0.5107687134140894,0.9434065934065934,0.62336195210122,0.0,0.6732013330719466,0.9305227655986509,0.0,"[[3434, 206, 0], [1667, 2759, 0], [0, 0, 0]]",119,0.7226890756302521,0.27967479674796747,0.0,0.0,0.7226890756302521,0.0,0.0,1.0,"[[0, 0, 0], [0, 0, 0], [0, 33, 86]]",292,0.0,0.0,0.0,0.0,0.0,0.0,0.0,0.0,"[[0, 0, 0], [0, 0, 0], [240, 52, 0]]",32956,0.845096492292754,0.8631374537552069,0.8624068532535352,0.777286413248024,0.9256385998107852,0.8494971679574616,0.7679650460165474,0.9989789667143149,"[[14698, 2345, 0], [2362, 8261, 5], [242, 151, 4892]]",1.044780233558696,pc1,-1.9169052986062067,
single_pc1_threshold,non-bad pc1 <= -1.8443 -> good else medium,23322,0.8913901037646857,0.8994718127555544,0.8614283416438797,0.8769886829588323,0.9874765184721352,0.9348053761563972,0.7501402918069585,0.9989442567567568,"[[10711, 1723, 0], [745, 5347, 5], [2, 58, 4731]]",1157,0.7303370786516854,0.7092562098899423,0.7038183694530443,0.8380952380952381,0.9036144578313253,0.9756795422031473,0.2297650130548303,1.0,"[[682, 287, 0], [17, 88, 0], [0, 8, 75]]",8477,0.7369352365223546,0.6135486501802615,0.9456043956043956,0.6143244464527791,0.20924574209245742,0.6383531157270029,0.9066355451817273,1.0,"[[3442, 198, 0], [1707, 2719, 0], [243, 82, 86]]",8066,0.763823456484007,0.5079403472127456,0.9456043956043956,0.6143244464527791,0.0,0.6684793163721111,0.9321220431950634,0.0,"[[3442, 198, 0], [1707, 2719, 0], [0, 0, 0]]",119,0.7226890756302521,0.27967479674796747,0.0,0.0,0.7226890756302521,0.0,0.0,1.0,"[[0, 0, 0], [0, 0, 0], [0, 33, 86]]",292,0.0,0.0,0.0,0.0,0.0,0.0,0.0,0.0,"[[0, 0, 0], [0, 0, 0], [243, 49, 0]]",32956,0.8460067969413764,0.8633752464743712,0.8704453441295547,0.7672186676703049,0.9256385998107852,0.8453473132372215,0.7758325404376784,0.9989789667143149,"[[14835, 2208, 0], [2469, 8154, 5], [245, 148, 4892]]",1.0518236441085593,pc1,-1.8443021636062291,
single_pc1_threshold,non-bad pc1 <= -1.7840 -> good else medium,23322,0.8943058056770431,0.9015146659560452,0.8715618465497829,0.8674758077743152,0.9874765184721352,0.930853805188112,0.7616647465437788,0.9989442567567568,"[[10837, 1597, 0], [803, 5289, 5], [2, 58, 4731]]",1157,0.7337942955920485,0.7079122788355848,0.7120743034055728,0.8,0.9036144578313253,0.9704641350210971,0.22641509433962265,1.0,"[[690, 279, 0], [21, 84, 0], [0, 8, 75]]",8477,0.7343399787660729,0.6116353892657366,0.9478021978021978,0.6075463172164483,0.20924574209245742,0.635008282716731,0.9090601757944557,1.0,"[[3450, 190, 0], [1737, 2689, 0], [246, 79, 86]]",8066,0.7610959583436647,0.505966870309892,0.9478021978021978,0.6075463172164483,0.0,0.6651243493348756,0.9340048627995832,0.0,"[[3450, 190, 0], [1737, 2689, 0], [0, 0, 0]]",119,0.7226890756302521,0.27967479674796747,0.0,0.0,0.7226890756302521,0.0,0.0,1.0,"[[0, 0, 0], [0, 0, 0], [0, 33, 86]]",292,0.0,0.0,0.0,0.0,0.0,0.0,0.0,0.0,"[[0, 0, 0], [0, 0, 0], [246, 46, 0]]",32956,0.8475239713557471,0.864129396328197,0.8787772105849909,0.7585622882950697,0.9256385998107852,0.8420667941077252,0.7847756254258736,0.9989789667143149,"[[14977, 2066, 0], [2561, 8062, 5], [248, 145, 4892]]",1.0569320478394282,pc1,-1.784039990514852,
single_pc1_threshold,non-bad pc1 <= -1.7097 -> good else medium,23322,0.896235314295515,0.9026402788833541,0.8808911050345826,0.8558307364277513,0.9874765184721352,0.9259447121481106,0.7722361994968181,0.9989442567567568,"[[10953, 1481, 0], [874, 5218, 5], [2, 58, 4731]]",1157,0.7381158167675022,0.7086284189764616,0.7192982456140351,0.780952380952381,0.9036144578313253,0.9680555555555556,0.2265193370165746,1.0,"[[697, 272, 0], [23, 82, 0], [0, 8, 75]]",8477,0.729503362038457,0.6080465215645224,0.951098901098901,0.5955716222322639,0.20924574209245742,0.6294545454545455,0.9117952265652024,1.0,"[[3462, 178, 0], [1790, 2636, 0], [248, 77, 86]]",8066,0.7560128936275725,0.5022847528226999,0.951098901098901,0.5955716222322639,0.0,0.6591774562071592,0.9367448471926084,0.0,"[[3462, 178, 0], [1790, 2636, 0], [0, 0, 0]]",119,0.7226890756302521,0.27967479674796747,0.0,0.0,0.7226890756302521,0.0,0.0,1.0,"[[0, 0, 0], [0, 0, 0], [0, 33, 86]]",292,0.0,0.0,0.0,0.0,0.0,0.0,0.0,0.0,"[[0, 0, 0], [0, 0, 0], [248, 44, 0]]",32956,0.8477970627503337,0.8637523687677803,0.8866983512292437,0.746706812194204,0.9256385998107852,0.8372763033963101,0.7928071928071928,0.9989789667143149,"[[15112, 1931, 0], [2687, 7936, 5], [250, 143, 4892]]",1.0626983574565743,pc1,-1.7097481247451538,
single_pc1_threshold,non-bad pc1 <= -1.6513 -> good else medium,23322,0.8974787754051968,0.9031060869862914,0.8897378156667203,0.8425455141873053,0.9874765184721352,0.9203826955074875,0.7823636917453548,0.9989442567567568,"[[11063, 1371, 0], [955, 5137, 5], [2, 58, 4731]]",1157,0.7407087294727744,0.7092144525976517,0.7234262125902993,0.7714285714285715,0.9036144578313253,0.9668965517241379,0.226890756302521,1.0,"[[701, 268, 0], [24, 81, 0], [0, 8, 75]]",8477,0.7262003067122803,0.6055842746393196,0.953021978021978,0.587663804789878,0.20924574209245742,0.6258343857117085,0.9132724719101124,1.0,"[[3469, 171, 0], [1825, 2601, 0], [249, 76, 86]]",8066,0.7525415323580461,0.4997615290784929,0.953021978021978,0.587663804789878,0.0,0.6552701171137136,0.9383116883116883,0.0,"[[3469, 171, 0], [1825, 2601, 0], [0, 0, 0]]",119,0.7226890756302521,0.27967479674796747,0.0,0.0,0.7226890756302521,0.0,0.0,1.0,"[[0, 0, 0], [0, 0, 0], [0, 33, 86]]",292,0.0,0.0,0.0,0.0,0.0,0.0,0.0,0.0,"[[0, 0, 0], [0, 0, 0], [249, 43, 0]]",32956,0.8479184367034834,0.8632732819961256,0.8937980402511295,0.7356981558148288,0.9256385998107852,0.8329505686789151,0.8002251560740968,0.9989789667143149,"[[15233, 1810, 0], [2804, 7819, 5], [251, 142, 4892]]",1.0661168635570994,pc1,-1.6512530261481766,
single_pc1_threshold,non-bad pc1 <= -1.5767 -> good else medium,23322,0.8990223822999742,0.9038418082167304,0.898825800225189,0.829916352304412,0.9874765184721352,0.9153153153153153,0.7936010037641155,0.9989442567567568,"[[11176, 1258, 0], [1032, 5060, 5], [2, 58, 4731]]",1157,0.742437337942956,0.7084233604612176,0.7275541795665634,0.7523809523809524,0.9036144578313253,0.9644322845417237,0.22507122507122507,1.0,"[[705, 264, 0], [26, 79, 0], [0, 8, 75]]",8477,0.7230152176477528,0.6031508466941017,0.9565934065934066,0.5786262991414369,0.20924574209245742,0.6218967672798714,0.9172636103151862,1.0,"[[3482, 158, 0], [1865, 2561, 0], [252, 73, 86]]",8066,0.749194148276717,0.4972540046895097,0.9565934065934066,0.5786262991414369,0.0,0.6512062838975127,0.9418904008826775,0.0,"[[3482, 158, 0], [1865, 2561, 0], [0, 0, 0]]",119,0.7226890756302521,0.27967479674796747,0.0,0.0,0.7226890756302521,0.0,0.0,1.0,"[[0, 0, 0], [0, 0, 0], [0, 33, 86]]",292,0.0,0.0,0.0,0.0,0.0,0.0,0.0,0.0,"[[0, 0, 0], [0, 0, 0], [252, 40, 0]]",32956,0.848252215074645,0.862931813441544,0.9014258053159655,0.7245013172751223,0.9256385998107852,0.8286407766990291,0.8089084987918899,0.9989789667143149,"[[15363, 1680, 0], [2923, 7700, 5], [254, 139, 4892]]",1.0686710654225338,pc1,-1.576716519931486,
single_pc1_threshold,non-bad pc1 <= -1.5134 -> good else medium,23322,0.9003515993482548,0.9043753818121693,0.9075920862152164,0.8171231753321305,0.9874765184721352,0.9103008792449786,0.8049765713362417,0.9989442567567568,"[[11285, 1149, 0], [1110, 4982, 5], [2, 58, 4731]]",1157,0.7502160760587727,0.7128036701911841,0.7368421052631579,0.7523809523809524,0.9036144578313253,0.9648648648648649,0.2309941520467836,1.0,"[[714, 255, 0], [26, 79, 0], [0, 8, 75]]",8477,0.7178247021351893,0.5992543787166267,0.9587912087912088,0.5668775417984636,0.20924574209245742,0.6164988517929695,0.919047619047619,1.0,"[[3490, 150, 0], [1917, 2509, 0], [254, 71, 86]]",8066,0.7437391519960327,0.49326111786595933,0.9587912087912088,0.5668775417984636,0.0,0.6454595894211208,0.9435878149680331,0.0,"[[3490, 150, 0], [1917, 2509, 0], [0, 0, 0]]",119,0.7226890756302521,0.27967479674796747,0.0,0.0,0.7226890756302521,0.0,0.0,1.0,"[[0, 0, 0], [0, 0, 0], [0, 33, 86]]",292,0.0,0.0,0.0,0.0,0.0,0.0,0.0,0.0,"[[0, 0, 0], [0, 0, 0], [254, 38, 0]]",32956,0.8481308411214953,0.8621512039270817,0.9088188699172681,0.7122694768535943,0.9256385998107852,0.8239706351739546,0.8174063276104092,0.9989789667143149,"[[15489, 1554, 0], [3053, 7570, 5], [256, 137, 4892]]",1.0783073886776693,pc1,-1.5134071253977925,
single_pc1_threshold,non-bad pc1 <= -1.4465 -> good else medium,23322,0.8997084298087643,0.9030154426788787,0.9145086054367058,0.80055765130392,0.9874765184721352,0.9036077558804831,0.8132289236921026,0.9989442567567568,"[[11371, 1063, 0], [1211, 4881, 5], [2, 58, 4731]]",1157,0.7579948141745895,0.7172580166948389,0.7461300309597523,0.7523809523809524,0.9036144578313253,0.965287049399199,0.23723723723723725,1.0,"[[723, 246, 0], [26, 79, 0], [0, 8, 75]]",8477,0.7121623215760292,0.5949274436388957,0.9620879120879121,0.5533212833258021,0.20924574209245742,0.6106364428945074,0.9220632530120482,1.0,"[[3502, 138, 0], [1977, 2449, 0], [256, 69, 86]]",8066,0.7377882469625588,0.48882796637689885,0.9620879120879121,0.5533212833258021,0.0,0.6391677313378353,0.9466563587166602,0.0,"[[3502, 138, 0], [1977, 2449, 0], [0, 0, 0]]",119,0.7226890756302521,0.27967479674796747,0.0,0.0,0.7226890756302521,0.0,0.0,1.0,"[[0, 0, 0], [0, 0, 0], [0, 33, 86]]",292,0.0,0.0,0.0,0.0,0.0,0.0,0.0,0.0,"[[0, 0, 0], [0, 0, 0], [256, 36, 0]]",32956,0.846492292753975,0.8599935908712021,0.915097107316787,0.6971208129469326,0.9256385998107852,0.8179148311306902,0.8240462684907129,0.9989789667143149,"[[15596, 1447, 0], [3214, 7409, 5], [258, 135, 4892]]",1.087943711932805,pc1,-1.4465364623595365,
single_pc1_threshold,non-bad pc1 <= -1.3708 -> good else medium,23322,0.9004373552868536,0.9029472596002485,0.92255106964774,0.7869443988846974,0.9874765184721352,0.8984882901229733,0.8245402990204502,0.9989442567567568,"[[11471, 963, 0], [1294, 4798, 5], [2, 58, 4731]]",1157,0.7640449438202247,0.7180926593236553,0.7564499484004128,0.7238095238095238,0.9036144578313253,0.9606815203145478,0.23824451410658307,1.0,"[[733, 236, 0], [29, 76, 0], [1, 7, 75]]",8477,0.7081514686799575,0.591794750284591,0.9656593406593407,0.5427022141888839,0.20924574209245742,0.606138989480945,0.9266975308641975,1.0,"[[3515, 125, 0], [2024, 2402, 0], [260, 65, 86]]",8066,0.7335730225638483,0.4856011388957366,0.9656593406593407,0.5427022141888839,0.0,0.6345910814226394,0.9505342303126236,0.0,"[[3515, 125, 0], [2024, 2402, 0], [0, 0, 0]]",119,0.7226890756302521,0.27967479674796747,0.0,0.0,0.7226890756302521,0.0,0.0,1.0,"[[0, 0, 0], [0, 0, 0], [0, 33, 86]]",292,0.0,0.0,0.0,0.0,0.0,0.0,0.0,0.0,"[[0, 0, 0], [0, 0, 0], [260, 32, 0]]",32956,0.8461888578711009,0.8589960544489487,0.9223141465704395,0.6846066992849078,0.9256385998107852,0.8132340007243003,0.8334478808705613,0.9989789667143149,"[[15719, 1324, 0], [3347, 7276, 5], [263, 130, 4892]]",1.0895297401483945,pc1,-1.37078121996034,
single_pc1_threshold,non-bad pc1 <= -1.3015 -> good else medium,23322,0.9002229654403567,0.9019338163044042,0.9297892874376709,0.7713629653928161,0.9874765184721352,0.8926034589252625,0.8347532836350727,0.9989442567567568,"[[11561, 873, 0], [1389, 4703, 5], [2, 58, 4731]]",1157,0.77009507346586,0.7197087406644794,0.7657378740970072,0.7047619047619048,0.9036144578313253,0.958656330749354,0.24025974025974026,1.0,"[[742, 227, 0], [31, 74, 0], [1, 7, 75]]",8477,0.7047304470921316,0.5890504763368188,0.9692307692307692,0.5332128332580208,0.20924574209245742,0.6026648445507345,0.9302325581395349,1.0,"[[3528, 112, 0], [2066, 2360, 0], [260, 65, 86]]",8066,0.7299776841061245,0.4827962865939803,0.9692307692307692,0.5332128332580208,0.0,0.6306757239899893,0.9546925566343042,0.0,"[[3528, 112, 0], [2066, 2360, 0], [0, 0, 0]]",119,0.7226890756302521,0.27967479674796747,0.0,0.0,0.7226890756302521,0.0,0.0,1.0,"[[0, 0, 0], [0, 0, 0], [0, 33, 86]]",292,0.0,0.0,0.0,0.0,0.0,0.0,0.0,0.0,"[[0, 0, 0], [0, 0, 0], [260, 32, 0]]",32956,0.8453695836873407,0.8575020476439215,0.9288857595493751,0.6715280391418893,0.9256385998107852,0.8085291113381001,0.841726618705036,0.9989789667143149,"[[15831, 1212, 0], [3486, 7137, 5], [263, 130, 4892]]",1.091770345984506,pc1,-1.301464996743018,
single_pc1_threshold,non-bad pc1 <= -1.2347 -> good else medium,23322,0.899794185747363,0.9006666137665097,0.936866655943381,0.7552894866327702,0.9874765184721352,0.8866646369310397,0.8452643171806168,0.9989442567567568,"[[11649, 785, 0], [1487, 4605, 5], [2, 58, 4731]]",1157,0.777009507346586,0.7228222841196411,0.7750257997936016,0.6952380952380952,0.9036144578313253,0.9579081632653061,0.24496644295302014,1.0,"[[751, 218, 0], [32, 73, 0], [1, 7, 75]]",8477,0.7004836616727615,0.5856522454499015,0.9730769230769231,0.5219159511974695,0.20924574209245742,0.5982097618645499,0.9352226720647774,1.0,"[[3542, 98, 0], [2116, 2310, 0], [263, 62, 86]]",8066,0.7255145053310191,0.47930529428698243,0.9730769230769231,0.5219159511974695,0.0,0.6260162601626016,0.9593023255813954,0.0,"[[3542, 98, 0], [2116, 2310, 0], [0, 0, 0]]",119,0.7226890756302521,0.27967479674796747,0.0,0.0,0.7226890756302521,0.0,0.0,1.0,"[[0, 0, 0], [0, 0, 0], [0, 33, 86]]",292,0.0,0.0,0.0,0.0,0.0,0.0,0.0,0.0,"[[0, 0, 0], [0, 0, 0], [263, 29, 0]]",32956,0.844216531132419,0.8556576141682098,0.9353986974124274,0.6575084681972149,0.9256385998107852,0.8034067429320163,0.8505355404089582,0.9989789667143149,"[[15942, 1101, 0], [3635, 6988, 5], [266, 127, 4892]]",1.0967800179604703,pc1,-1.2346995438277963,
single_pc1_threshold,non-bad pc1 <= -1.1647 -> good else medium,23322,0.8980790669753881,0.8980952143374181,0.9426572301753258,0.7369197966212891,0.9874765184721352,0.8798228494220087,0.853533434650456,0.9989442567567568,"[[11721, 713, 0], [1599, 4493, 5], [2, 58, 4731]]",1157,0.7856525496974935,0.7270365414239803,0.7863777089783281,0.6857142857142857,0.9036144578313253,0.957286432160804,0.2517482517482518,1.0,"[[762, 207, 0], [33, 72, 0], [1, 7, 75]]",8477,0.6949392473752507,0.5812357088355653,0.9763736263736263,0.508585630366019,0.20924574209245742,0.5929262595929262,0.9390905298289528,1.0,"[[3554, 86, 0], [2175, 2251, 0], [265, 60, 86]]",8066,0.7196875774857426,0.47478437590795286,0.9763736263736263,0.508585630366019,0.0,0.6203525920754058,0.9632006846384253,0.0,"[[3554, 86, 0], [2175, 2251, 0], [0, 0, 0]]",119,0.7226890756302521,0.27967479674796747,0.0,0.0,0.7226890756302521,0.0,0.0,1.0,"[[0, 0, 0], [0, 0, 0], [0, 33, 86]]",292,0.0,0.0,0.0,0.0,0.0,0.0,0.0,0.0,"[[0, 0, 0], [0, 0, 0], [265, 27, 0]]",32956,0.8418800825342881,0.8526832007540367,0.940972833421346,0.6413248024087317,0.9256385998107852,0.797384645982498,0.8576821442053605,0.9989789667143149,"[[16037, 1006, 0], [3807, 6816, 5], [268, 125, 4892]]",1.1035182984066156,pc1,-1.164687927526329,
single_pc1_threshold,non-bad pc1 <= -1.0973 -> good else medium,23322,0.8967927278964068,0.8958932350018746,0.9489303522599325,0.719206166967361,0.9874765184721352,0.8733530717986676,0.8638691883372734,0.9989442567567568,"[[11799, 635, 0], [1707, 4385, 5], [4, 56, 4731]]",1157,0.7925669835782195,0.7302676316824277,0.7956656346749226,0.6761904761904762,0.9036144578313253,0.956575682382134,0.2572463768115942,1.0,"[[771, 198, 0], [34, 71, 0], [1, 7, 75]]",8477,0.6908104282175298,0.5779442089454285,0.9782967032967033,0.4990962494351559,0.20924574209245742,0.5890818858560795,0.9416027280477408,1.0,"[[3561, 79, 0], [2217, 2209, 0], [267, 58, 86]]",8066,0.7153483758988346,0.471413170355416,0.9782967032967033,0.4990962494351559,0.0,0.6163032191069574,0.965472027972028,0.0,"[[3561, 79, 0], [2217, 2209, 0], [0, 0, 0]]",119,0.7226890756302521,0.27967479674796747,0.0,0.0,0.7226890756302521,0.0,0.0,1.0,"[[0, 0, 0], [0, 0, 0], [0, 33, 86]]",292,0.0,0.0,0.0,0.0,0.0,0.0,0.0,0.0,"[[0, 0, 0], [0, 0, 0], [267, 25, 0]]",32956,0.8401505037019056,0.850273781998608,0.9464882943143813,0.627117049303726,0.9256385998107852,0.792249889494622,0.8658093011171732,0.9989789667143149,"[[16131, 912, 0], [3958, 6665, 5], [272, 121, 4892]]",1.1085279703825799,pc1,-1.0972989893641862,
single_pc1_threshold,non-bad pc1 <= -1.0241 -> good else medium,23322,0.8937912700454507,0.8918780787010366,0.9536754061444427,0.6980482204362801,0.9874765184721352,0.8656106285130302,0.8708819316554123,0.9989442567567568,"[[11858, 576, 0], [1836, 4256, 5], [5, 55, 4731]]",1157,0.7960242005185826,0.7303016858064616,0.8018575851393189,0.6571428571428571,0.9036144578313253,0.9545454545454546,0.2574626865671642,1.0,"[[777, 192, 0], [36, 69, 0], [1, 7, 75]]",8477,0.6878612716763006,0.575418180733172,0.9824175824175824,0.4900587437867149,0.20924574209245742,0.5859413403244306,0.9479895104895105,1.0,"[[3576, 64, 0], [2257, 2169, 0], [270, 55, 86]]",8066,0.7122489461939003,0.46881234225862434,0.9824175824175824,0.4900587437867149,0.0,0.6130636036344934,0.9713390058217645,0.0,"[[3576, 64, 0], [2257, 2169, 0], [0, 0, 0]]",119,0.7226890756302521,0.27967479674796747,0.0,0.0,0.7226890756302521,0.0,0.0,1.0,"[[0, 0, 0], [0, 0, 0], [0, 33, 86]]",292,0.0,0.0,0.0,0.0,0.0,0.0,0.0,0.0,"[[0, 0, 0], [0, 0, 0], [270, 22, 0]]",32956,0.8373892462677509,0.8468561037113974,0.9511823035850496,0.6110274745954084,0.9256385998107852,0.7863310050446255,0.8724976487975279,0.9989789667143149,"[[16211, 832, 0], [4129, 6494, 5], [276, 117, 4892]]",1.108175663513419,pc1,-1.0241296227628727,
single_pc1_threshold,non-bad pc1 <= -0.9582 -> good else medium,23322,0.8915187376725838,0.8885024076936597,0.9589834325237253,0.6785304247990815,0.9874765184721352,0.8588303082685105,0.8798383666524883,0.9989442567567568,"[[11924, 510, 0], [1955, 4137, 5], [5, 55, 4731]]",1157,0.8029386343993086,0.7324794823942975,0.8121775025799793,0.638095238095238,0.9036144578313253,0.9527845036319612,0.26171875,1.0,"[[787, 182, 0], [38, 67, 0], [1, 7, 75]]",8477,0.6838504187802289,0.5720156624346413,0.9865384615384616,0.4789877993673746,0.20924574209245742,0.5821040687307505,0.9540954095409541,1.0,"[[3591, 49, 0], [2306, 2120, 0], [272, 53, 86]]",8066,0.7080337217951896,0.46532609954621496,0.9865384615384616,0.4789877993673746,0.0,0.608953705273868,0.9774089442139234,0.0,"[[3591, 49, 0], [2306, 2120, 0], [0, 0, 0]]",119,0.7226890756302521,0.27967479674796747,0.0,0.0,0.7226890756302521,0.0,0.0,1.0,"[[0, 0, 0], [0, 0, 0], [0, 33, 86]]",292,0.0,0.0,0.0,0.0,0.0,0.0,0.0,0.0,"[[0, 0, 0], [0, 0, 0], [272, 20, 0]]",32956,0.8349921106930452,0.843639593411959,0.9565217391304348,0.5950319909672563,0.9256385998107852,0.7807845203314335,0.8807799442896936,0.9989789667143149,"[[16302, 741, 0], [4299, 6324, 5], [278, 115, 4892]]",1.1112805735846214,pc1,-0.9582339547687732,
single_pc1_threshold,non-bad pc1 <= -0.8974 -> good else medium,23322,0.8877883543435383,0.8835619051040662,0.9627633907029114,0.6565524028210595,0.9874765184721352,0.8511198009242801,0.8854235788542358,0.9989442567567568,"[[11971, 463, 0], [2089, 4003, 5], [5, 55, 4731]]",1157,0.8159031979256698,0.7409460569685606,0.8276573787409701,0.638095238095238,0.9036144578313253,0.9536266349583828,0.27800829875518673,1.0,"[[802, 167, 0], [38, 67, 0], [1, 7, 75]]",8477,0.6787778695293146,0.5678353688195991,0.989010989010989,0.46723904202440125,0.20924574209245742,0.5776636713735558,0.9578508568781844,1.0,"[[3600, 40, 0], [2358, 2068, 0], [274, 51, 86]]",8066,0.7027027027027027,0.46105097185183314,0.989010989010989,0.46723904202440125,0.0,0.6042296072507553,0.9810246679316889,0.0,"[[3600, 40, 0], [2358, 2068, 0], [0, 0, 0]]",119,0.7226890756302521,0.27967479674796747,0.0,0.0,0.7226890756302521,0.0,0.0,1.0,"[[0, 0, 0], [0, 0, 0], [0, 33, 86]]",292,0.0,0.0,0.0,0.0,0.0,0.0,0.0,0.0,"[[0, 0, 0], [0, 0, 0], [274, 18, 0]]",32956,0.8315026095399927,0.8393633874860672,0.9606876723581529,0.5775310500564547,0.9256385998107852,0.7745765919197654,0.8868660598179454,0.9989789667143149,"[[16373, 670, 0], [4485, 6138, 5], [280, 113, 4892]]",1.1242451371109825,pc1,-0.8974152366550533,
single_pc1_threshold,non-bad pc1 <= -0.8374 -> good else medium,23322,0.8841008489837922,0.8785720426091111,0.9663824995978768,0.6350664261112022,0.9874765184721352,0.843760971841865,0.8911392405063291,0.9989442567567568,"[[12016, 418, 0], [2220, 3872, 5], [5, 55, 4731]]",1157,0.8314606741573034,0.7505142745435197,0.847265221878225,0.6285714285714286,0.9036144578313253,0.9535423925667829,0.2986425339366516,1.0,"[[821, 148, 0], [39, 66, 0], [1, 7, 75]]",8477,0.6733514214934528,0.5633889476222845,0.9906593406593407,0.45549028468142794,0.20924574209245742,0.5730176386461148,0.9609151572926596,1.0,"[[3606, 34, 0], [2410, 2016, 0], [277, 48, 86]]",8066,0.6969997520456236,0.4564998902326505,0.9906593406593407,0.45549028468142794,0.0,0.5994015957446809,0.9834146341463414,0.0,"[[3606, 34, 0], [2410, 2016, 0], [0, 0, 0]]",119,0.7226890756302521,0.27967479674796747,0.0,0.0,0.7226890756302521,0.0,0.0,1.0,"[[0, 0, 0], [0, 0, 0], [0, 33, 86]]",292,0.0,0.0,0.0,0.0,0.0,0.0,0.0,0.0,"[[0, 0, 0], [0, 0, 0], [277, 15, 0]]",32956,0.8280434518752275,0.8350377204767795,0.9647949304699877,0.5602182913059842,0.9256385998107852,0.7685440523486796,0.8934573829531812,0.9989789667143149,"[[16443, 600, 0], [4669, 5954, 5], [283, 110, 4892]]",1.1378978514378542,pc1,-0.8373668128378732,
single_pc1_threshold,non-bad pc1 <= -0.7786 -> good else medium,23322,0.8800274419003516,0.8730200024434946,0.9699211838507319,0.6122683286862391,0.9874765184721352,0.835990572577291,0.8973557692307692,0.9989442567567568,"[[12060, 374, 0], [2359, 3733, 5], [7, 53, 4731]]",1157,0.8426966292134831,0.7587128162266623,0.8606811145510835,0.6285714285714286,0.9036144578313253,0.954233409610984,0.3173076923076923,1.0,"[[834, 135, 0], [39, 66, 0], [1, 7, 75]]",8477,0.6680429397192403,0.5589664275767577,0.9925824175824176,0.44374152733845457,0.20924574209245742,0.5685287175452399,0.9646365422396856,1.0,"[[3613, 27, 0], [2462, 1964, 0], [280, 45, 86]]",8066,0.6914207785767419,0.4519740985442655,0.9925824175824176,0.44374152733845457,0.0,0.5947325102880658,0.9864389753892516,0.0,"[[3613, 27, 0], [2462, 1964, 0], [0, 0, 0]]",119,0.7226890756302521,0.27967479674796747,0.0,0.0,0.7226890756302521,0.0,0.0,1.0,"[[0, 0, 0], [0, 0, 0], [0, 33, 86]]",292,0.0,0.0,0.0,0.0,0.0,0.0,0.0,0.0,"[[0, 0, 0], [0, 0, 0], [280, 12, 0]]",32956,0.8241898288627261,0.8302521996842672,0.9685501378865223,0.5422468949943545,0.9256385998107852,0.7622719926114061,0.8999063085571518,0.9989789667143149,"[[16507, 536, 0], [4860, 5763, 5], [288, 105, 4892]]",1.149133806494034,pc1,-0.778573273838816,
single_pc1_threshold,non-bad pc1 <= -0.7204 -> good else medium,23322,0.8758682788783123,0.8672463561249909,0.9731381695351455,0.5897982614400525,0.9874765184721352,0.8285968636581524,0.902837057494351,0.9989442567567568,"[[12100, 334, 0], [2496, 3596, 5], [7, 53, 4731]]",1157,0.857389801210026,0.7688963215754878,0.8792569659442725,0.6190476190476191,0.9036144578313253,0.9540873460246361,0.3439153439153439,1.0,"[[852, 117, 0], [40, 65, 0], [1, 7, 75]]",8477,0.6630883567299752,0.5547438477567314,0.9947802197802198,0.4324446452779033,0.20924574209245742,0.5645463049579046,0.9681335356600911,1.0,"[[3621, 19, 0], [2512, 1914, 0], [281, 44, 86]]",8066,0.6862137366724522,0.4476675414758226,0.9947802197802198,0.4324446452779033,0.0,0.5904125224196968,0.9901707190894982,0.0,"[[3621, 19, 0], [2512, 1914, 0], [0, 0, 0]]",119,0.7226890756302521,0.27967479674796747,0.0,0.0,0.7226890756302521,0.0,0.0,1.0,"[[0, 0, 0], [0, 0, 0], [0, 33, 86]]",292,0.0,0.0,0.0,0.0,0.0,0.0,0.0,0.0,"[[0, 0, 0], [0, 0, 0], [281, 11, 0]]",32956,0.8204879232916616,0.8254782217002544,0.9724226955348236,0.5245577719232217,0.9256385998107852,0.7564125969876768,0.9066514880468369,0.9989789667143149,"[[16573, 470, 0], [5048, 5575, 5], [289, 104, 4892]]",1.1619222165858147,pc1,-0.7204474297339087,
single_pc1_threshold,non-bad pc1 <= -0.6552 -> good else medium,23322,0.8715804819483749,0.8611621204990868,0.9763551552195593,0.5668361489257011,0.9874765184721352,0.8211580086580087,0.908995265649658,0.9989442567567568,"[[12140, 294, 0], [2636, 3456, 5], [8, 52, 4731]]",1157,0.8694900605012964,0.7777071423299748,0.8947368421052632,0.6095238095238096,0.9036144578313253,0.9537953795379538,0.3699421965317919,1.0,"[[867, 102, 0], [41, 64, 0], [1, 7, 75]]",8477,0.6568361448625694,0.5494418021220534,0.9964285714285714,0.4191143244464528,0.20924574209245742,0.5597222222222222,0.9706959706959707,1.0,"[[3627, 13, 0], [2571, 1855, 0], [282, 43, 86]]",8066,0.6796429456979916,0.4422650863057907,0.9964285714285714,0.4191143244464528,0.0,0.585188770571152,0.9930406852248393,0.0,"[[3627, 13, 0], [2571, 1855, 0], [0, 0, 0]]",119,0.7226890756302521,0.27967479674796747,0.0,0.0,0.7226890756302521,0.0,0.0,1.0,"[[0, 0, 0], [0, 0, 0], [0, 33, 86]]",292,0.0,0.0,0.0,0.0,0.0,0.0,0.0,0.0,"[[0, 0, 0], [0, 0, 0], [282, 10, 0]]",32956,0.8162701784197112,0.8200671483681479,0.9760018776037083,0.5057395558901017,0.9256385998107852,0.7501916745591485,0.9131838260278627,0.9989789667143149,"[[16634, 409, 0], [5248, 5375, 5], [291, 102, 4892]]",1.1721177139723236,pc1,-0.6552198625674045,
single_pc1_threshold,non-bad pc1 <= -0.5907 -> good else medium,23322,0.8661778578166538,0.8536427695793013,0.9786874698407592,0.5414138100705265,0.9874765184721352,0.8130010689470871,0.9123825317855169,0.9989442567567568,"[[12169, 265, 0], [2791, 3301, 5], [8, 52, 4731]]",1157,0.874675885911841,0.7783326107110251,0.9040247678018576,0.580952380952381,0.9036144578313253,0.9511400651465798,0.37888198757763975,1.0,"[[876, 93, 0], [44, 61, 0], [1, 7, 75]]",8477,0.64822460776218,0.5421544018154428,0.9972527472527473,0.4019430637144148,0.20924574209245742,0.553438024089038,0.9710698689956332,1.0,"[[3630, 10, 0], [2647, 1779, 0], [282, 43, 86]]",8066,0.6705926109595834,0.4348540512967201,0.9972527472527473,0.4019430637144148,0.0,0.5783017364983273,0.9944102850754611,0.0,"[[3630, 10, 0], [2647, 1779, 0], [0, 0, 0]]",119,0.7226890756302521,0.27967479674796747,0.0,0.0,0.7226890756302521,0.0,0.0,1.0,"[[0, 0, 0], [0, 0, 0], [0, 33, 86]]",292,0.0,0.0,0.0,0.0,0.0,0.0,0.0,0.0,"[[0, 0, 0], [0, 0, 0], [282, 10, 0]]",32956,0.8104138851802403,0.8128582311870477,0.9784075573549258,0.48372224313135115,0.9256385998107852,0.742827868852459,0.9162359650686153,0.9989789667143149,"[[16675, 368, 0], [5482, 5141, 5], [291, 102, 4892]]",1.1715892536685821,pc1,-0.5906614700898858,
single_pc1_threshold,non-bad pc1 <= -0.5232 -> good else medium,23322,0.8614612811937227,0.8467280969281054,0.9814219076725108,0.5177956371986223,0.9874765184721352,0.8056380801478841,0.9179994184355917,0.9989442567567568,"[[12203, 231, 0], [2935, 3157, 5], [9, 51, 4731]]",1157,0.8867761452031115,0.7867280074669306,0.9205366357069144,0.5619047619047619,0.9036144578313253,0.9499467518636848,0.4125874125874126,1.0,"[[892, 77, 0], [46, 59, 0], [1, 7, 75]]",8477,0.6405568007549841,0.535534068073169,0.9983516483516484,0.38635336647085405,0.20924574209245742,0.5478667269712045,0.9726962457337884,1.0,"[[3634, 6, 0], [2716, 1710, 0], [283, 42, 86]]",8066,0.6625340937267543,0.4281164698835382,0.9983516483516484,0.38635336647085405,0.0,0.5722834645669291,0.9965034965034965,0.0,"[[3634, 6, 0], [2716, 1710, 0], [0, 0, 0]]",119,0.7226890756302521,0.27967479674796747,0.0,0.0,0.7226890756302521,0.0,0.0,1.0,"[[0, 0, 0], [0, 0, 0], [0, 33, 86]]",292,0.0,0.0,0.0,0.0,0.0,0.0,0.0,0.0,"[[0, 0, 0], [0, 0, 0], [283, 9, 0]]",32956,0.8055285835659668,0.8064506824672467,0.9815760136126269,0.4634926608957471,0.9256385998107852,0.7363440292266384,0.9224719101123595,0.9989789667143149,"[[16729, 314, 0], [5697, 4926, 5], [293, 100, 4892]]",1.1798799891503289,pc1,-0.5232103058501528,
single_pc1_threshold,non-bad pc1 <= -0.4643 -> good else medium,23322,0.8557585112769059,0.8385228234434133,0.9832716744410487,0.4922092832540594,0.9874765184721352,0.7975732272163872,0.921400061406202,0.9989442567567568,"[[12226, 208, 0], [3091, 3001, 5], [12, 48, 4731]]",1157,0.9014693171996543,0.8015350612818967,0.9380804953560371,0.5619047619047619,0.9036144578313253,0.950836820083682,0.46825396825396826,1.0,"[[909, 60, 0], [46, 59, 0], [1, 7, 75]]",8477,0.6340686563642798,0.5298704700813941,0.9991758241758242,0.37324898328061457,0.20924574209245742,0.5431600955794504,0.9746312684365782,1.0,"[[3637, 3, 0], [2774, 1652, 0], [285, 40, 86]]",8066,0.6557153483758988,0.42234692418007636,0.9991758241758242,0.37324898328061457,0.0,0.5673061924816721,0.9981873111782478,0.0,"[[3637, 3, 0], [2774, 1652, 0], [0, 0, 0]]",119,0.7226890756302521,0.27967479674796747,0.0,0.0,0.7226890756302521,0.0,0.0,1.0,"[[0, 0, 0], [0, 0, 0], [0, 33, 86]]",292,0.0,0.0,0.0,0.0,0.0,0.0,0.0,0.0,"[[0, 0, 0], [0, 0, 0], [285, 7, 0]]",32956,0.800339847068819,0.799678007328401,0.9840990435956111,0.44335716974030864,0.9256385998107852,0.7298202863234846,0.9279243796770382,0.9989789667143149,"[[16772, 271, 0], [5911, 4712, 5], [298, 95, 4892]]",1.1945731611468717,pc1,-0.4642793022611696,
single_pc1_threshold,non-bad pc1 <= -0.3997 -> good else medium,23322,0.8500128633907899,0.830016702808921,0.9850410165674762,0.46662292930949645,0.9874765184721352,0.7897349925849507,0.9246018849528762,0.9989442567567568,"[[12248, 186, 0], [3247, 2845, 5], [14, 46, 4731]]",1157,0.9152981849611063,0.8157110786717623,0.95562435500516,0.5523809523809524,0.9036144578313253,0.9507186858316222,0.5370370370370371,1.0,"[[926, 43, 0], [47, 58, 0], [1, 7, 75]]",8477,0.6235696590775038,0.5206521742148523,0.9994505494505495,0.35291459557162225,0.20924574209245742,0.5360247532046559,0.9738154613466334,1.0,"[[3638, 2, 0], [2864, 1562, 0], [285, 40, 86]]",8066,0.6446813786263328,0.41298287741999057,0.9994505494505495,0.35291459557162225,0.0,0.5595201476468779,0.9987212276214834,0.0,"[[3638, 2, 0], [2864, 1562, 0], [0, 0, 0]]",119,0.7226890756302521,0.27967479674796747,0.0,0.0,0.7226890756302521,0.0,0.0,1.0,"[[0, 0, 0], [0, 0, 0], [0, 33, 86]]",292,0.0,0.0,0.0,0.0,0.0,0.0,0.0,0.0,"[[0, 0, 0], [0, 0, 0], [285, 7, 0]]",32956,0.7940587449933244,0.7914051691553684,0.9864460482309453,0.42011667293940536,0.9256385998107852,0.7224752900730554,0.9323449571935686,0.9989789667143149,"[[16812, 231, 0], [6158, 4465, 5], [300, 93, 4892]]",1.2064972670035619,pc1,-0.39973859753200985,
single_pc1_threshold,non-bad pc1 <= -0.3228 -> good else medium,23322,0.8440528256581769,0.821091493715158,0.9863278108412418,0.4412005904543218,0.9874765184721352,0.7820431067465884,0.9263085399449036,0.9989442567567568,"[[12264, 170, 0], [3402, 2690, 5], [16, 44, 4731]]",1157,0.9265341400172861,0.8209748105426112,0.9752321981424149,0.49523809523809526,0.9036144578313253,0.9459459459459459,0.6265060240963856,1.0,"[[945, 24, 0], [53, 52, 0], [1, 7, 75]]",8477,0.6090598088946562,0.5076601299252946,0.9994505494505495,0.32512426570266606,0.20924574209245742,0.5264071769642599,0.9722972972972973,1.0,"[[3638, 2, 0], [2987, 1439, 0], [286, 39, 86]]",8066,0.629432184478056,0.39978555883429223,0.9994505494505495,0.32512426570266606,0.0,0.5491320754716981,0.9986120749479528,0.0,"[[3638, 2, 0], [2987, 1439, 0], [0, 0, 0]]",119,0.7226890756302521,0.27967479674796747,0.0,0.0,0.7226890756302521,0.0,0.0,1.0,"[[0, 0, 0], [0, 0, 0], [0, 33, 86]]",292,0.0,0.0,0.0,0.0,0.0,0.0,0.0,0.0,"[[0, 0, 0], [0, 0, 0], [286, 6, 0]]",32956,0.7865032164097585,0.7813521127889821,0.9884996772868626,0.3933948061723749,0.9256385998107852,0.714097999321804,0.9359749272442355,0.9989789667143149,"[[16847, 196, 0], [6442, 4181, 5], [303, 90, 4892]]",1.20630465063117,pc1,-0.3228316195424364,
single_pc1_threshold,non-bad pc1 <= -0.2492 -> good else medium,23322,0.8380499099562645,0.8116913569196003,0.988016728325559,0.4147941610628178,0.9874765184721352,0.7742484401588202,0.9301213681500552,0.9989442567567568,"[[12285, 149, 0], [3563, 2529, 5], [19, 41, 4731]]",1157,0.9369057908383751,0.8340914292946131,0.9886480908152735,0.4857142857142857,0.9036144578313253,0.945705824284304,0.7391304347826086,1.0,"[[958, 11, 0], [54, 51, 0], [1, 7, 75]]",8477,0.5967913176831426,0.496383246010253,0.9994505494505495,0.3016267510167194,0.20924574209245742,0.5185290763968073,0.9709090909090909,1.0,"[[3638, 2, 0], [3091, 1335, 0], [287, 38, 86]]",8066,0.6165385569055294,0.3883357918923929,0.9994505494505495,0.3016267510167194,0.0,0.5406449695348492,0.9985041136873598,0.0,"[[3638, 2, 0], [3091, 1335, 0], [0, 0, 0]]",119,0.7226890756302521,0.27967479674796747,0.0,0.0,0.7226890756302521,0.0,0.0,1.0,"[[0, 0, 0], [0, 0, 0], [0, 33, 86]]",292,0.0,0.0,0.0,0.0,0.0,0.0,0.0,0.0,"[[0, 0, 0], [0, 0, 0], [287, 5, 0]]",32956,0.7794635271270786,0.7716592590649216,0.9904946312268966,0.3683665788483252,0.9256385998107852,0.706436223635755,0.940427576267115,0.9989789667143149,"[[16881, 162, 0], [6708, 3915, 5], [307, 86, 4892]]",1.2147715395474974,pc1,-0.24922840964162085,
single_pc1_threshold,non-bad pc1 <= -0.1649 -> good else medium,23322,0.8321756281622502,0.8020164011429363,0.9900273443783175,0.38822371658192556,0.9874765184721352,0.766739333540953,0.9352034768866061,0.9989442567567568,"[[12310, 124, 0], [3725, 2367, 5], [20, 40, 4731]]",1157,0.9394987035436474,0.8331809598891212,0.9948400412796697,0.45714285714285713,0.9036144578313253,0.9432485322896281,0.8,1.0,"[[964, 5, 0], [57, 48, 0], [1, 7, 75]]",8477,0.5811018048838033,0.48149065184373613,0.9997252747252747,0.27135110709444193,0.20924574209245742,0.5088087248322147,0.9693301049233253,1.0,"[[3639, 1, 0], [3225, 1201, 0], [288, 37, 86]]",8066,0.600049590875279,0.37322450057044415,0.9997252747252747,0.27135110709444193,0.0,0.5301573426573427,0.9991680532445923,0.0,"[[3639, 1, 0], [3225, 1201, 0], [0, 0, 0]]",119,0.7226890756302521,0.27967479674796747,0.0,0.0,0.7226890756302521,0.0,0.0,1.0,"[[0, 0, 0], [0, 0, 0], [0, 33, 86]]",292,0.0,0.0,0.0,0.0,0.0,0.0,0.0,0.0,"[[0, 0, 0], [0, 0, 0], [288, 4, 0]]",32956,0.7713618157543392,0.7602353463880086,0.992372234935164,0.3402333458788107,0.9256385998107852,0.6980477939659087,0.9441253263707572,0.9989789667143149,"[[16913, 130, 0], [7007, 3616, 5], [309, 84, 4892]]",1.211650166538484,pc1,-0.16494725683303663,
single_pc1_threshold,non-bad pc1 <= -0.0867 -> good else medium,23322,0.8257868107366435,0.7913148046394004,0.9917162618626347,0.3603411513859275,0.9874765184721352,0.7589241752831117,0.9396920444824637,0.9989442567567568,"[[12331, 103, 0], [3895, 2197, 5], [22, 38, 4731]]",1157,0.9403630077787382,0.8311016547863659,0.9979360165118679,0.4380952380952381,0.9036144578313253,0.9415774099318404,0.8363636363636363,1.0,"[[967, 2, 0], [59, 46, 0], [1, 7, 75]]",8477,0.5657661908694114,0.4664825621327086,0.9997252747252747,0.2419792137370086,0.20924574209245742,0.4995881383855025,0.967479674796748,1.0,"[[3639, 1, 0], [3355, 1071, 0], [290, 35, 86]]",8066,0.5839325564096206,0.35800157261350973,0.9997252747252747,0.2419792137370086,0.0,0.5203031169573921,0.9990671641791045,0.0,"[[3639, 1, 0], [3355, 1071, 0], [0, 0, 0]]",119,0.7226890756302521,0.27967479674796747,0.0,0.0,0.7226890756302521,0.0,0.0,1.0,"[[0, 0, 0], [0, 0, 0], [0, 33, 86]]",292,0.0,0.0,0.0,0.0,0.0,0.0,0.0,0.0,"[[0, 0, 0], [0, 0, 0], [290, 2, 0]]",32956,0.7629263260104382,0.748096803386292,0.9937804377163645,0.3118178396687994,0.9256385998107852,0.6896453438657926,0.9468571428571428,0.9989789667143149,"[[16937, 106, 0], [7309, 3314, 5], [313, 80, 4892]]",1.208704946964051,pc1,-0.08670208483629023,
