med_min,bad_max,top_n,flip_total,acc,good_recall,medium_recall,bad_recall,passes_gates,confusion_3x3
0.0005,0.3,all,1928,0.93643150833153,0.9313888888888889,0.9220833333333334,0.970617042115573,False,"[[6706, 494, 0], [561, 6639, 0], [0, 120, 3964]]"
0.0005,0.35,all,1928,0.93643150833153,0.9313888888888889,0.9220833333333334,0.970617042115573,False,"[[6706, 494, 0], [561, 6639, 0], [0, 120, 3964]]"
0.0005,0.4,all,1928,0.93643150833153,0.9313888888888889,0.9220833333333334,0.970617042115573,False,"[[6706, 494, 0], [561, 6639, 0], [0, 120, 3964]]"
0.0005,0.45,all,1928,0.93643150833153,0.9313888888888889,0.9220833333333334,0.970617042115573,False,"[[6706, 494, 0], [561, 6639, 0], [0, 120, 3964]]"
0.0005,0.5,all,1928,0.93643150833153,0.9313888888888889,0.9220833333333334,0.970617042115573,False,"[[6706, 494, 0], [561, 6639, 0], [0, 120, 3964]]"
0.0005,0.55,all,1928,0.93643150833153,0.9313888888888889,0.9220833333333334,0.970617042115573,False,"[[6706, 494, 0], [561, 6639, 0], [0, 120, 3964]]"
0.0005,0.6,all,1928,0.93643150833153,0.9313888888888889,0.9220833333333334,0.970617042115573,False,"[[6706, 494, 0], [561, 6639, 0], [0, 120, 3964]]"
0.0005,0.7,all,1928,0.93643150833153,0.9313888888888889,0.9220833333333334,0.970617042115573,False,"[[6706, 494, 0], [561, 6639, 0], [0, 120, 3964]]"
0.0005,0.8,all,1928,0.93643150833153,0.9313888888888889,0.9220833333333334,0.970617042115573,False,"[[6706, 494, 0], [561, 6639, 0], [0, 120, 3964]]"
0.0005,0.95,all,1928,0.93643150833153,0.9313888888888889,0.9220833333333334,0.970617042115573,False,"[[6706, 494, 0], [561, 6639, 0], [0, 120, 3964]]"
0.0002,0.3,all,2359,0.9363774074875568,0.9198611111111111,0.9334722222222223,0.970617042115573,False,"[[6623, 577, 0], [479, 6721, 0], [0, 120, 3964]]"
0.0002,0.35,all,2359,0.9363774074875568,0.9198611111111111,0.9334722222222223,0.970617042115573,False,"[[6623, 577, 0], [479, 6721, 0], [0, 120, 3964]]"
0.0002,0.4,all,2359,0.9363774074875568,0.9198611111111111,0.9334722222222223,0.970617042115573,False,"[[6623, 577, 0], [479, 6721, 0], [0, 120, 3964]]"
0.0002,0.45,all,2359,0.9363774074875568,0.9198611111111111,0.9334722222222223,0.970617042115573,False,"[[6623, 577, 0], [479, 6721, 0], [0, 120, 3964]]"
0.0002,0.5,all,2359,0.9363774074875568,0.9198611111111111,0.9334722222222223,0.970617042115573,False,"[[6623, 577, 0], [479, 6721, 0], [0, 120, 3964]]"
0.0002,0.55,all,2359,0.9363774074875568,0.9198611111111111,0.9334722222222223,0.970617042115573,False,"[[6623, 577, 0], [479, 6721, 0], [0, 120, 3964]]"
0.0002,0.6,all,2359,0.9363774074875568,0.9198611111111111,0.9334722222222223,0.970617042115573,False,"[[6623, 577, 0], [479, 6721, 0], [0, 120, 3964]]"
0.0002,0.7,all,2359,0.9363774074875568,0.9198611111111111,0.9334722222222223,0.970617042115573,False,"[[6623, 577, 0], [479, 6721, 0], [0, 120, 3964]]"
0.0002,0.8,all,2359,0.9363774074875568,0.9198611111111111,0.9334722222222223,0.970617042115573,False,"[[6623, 577, 0], [479, 6721, 0], [0, 120, 3964]]"
0.0002,0.95,all,2359,0.9363774074875568,0.9198611111111111,0.9334722222222223,0.970617042115573,False,"[[6623, 577, 0], [479, 6721, 0], [0, 120, 3964]]"
0.001,0.3,all,1677,0.9363233066435837,0.9373611111111111,0.9158333333333334,0.970617042115573,False,"[[6749, 451, 0], [606, 6594, 0], [0, 120, 3964]]"
0.001,0.35,all,1677,0.9363233066435837,0.9373611111111111,0.9158333333333334,0.970617042115573,False,"[[6749, 451, 0], [606, 6594, 0], [0, 120, 3964]]"
0.001,0.4,all,1677,0.9363233066435837,0.9373611111111111,0.9158333333333334,0.970617042115573,False,"[[6749, 451, 0], [606, 6594, 0], [0, 120, 3964]]"
0.001,0.45,all,1677,0.9363233066435837,0.9373611111111111,0.9158333333333334,0.970617042115573,False,"[[6749, 451, 0], [606, 6594, 0], [0, 120, 3964]]"
0.001,0.5,all,1677,0.9363233066435837,0.9373611111111111,0.9158333333333334,0.970617042115573,False,"[[6749, 451, 0], [606, 6594, 0], [0, 120, 3964]]"
0.001,0.55,all,1677,0.9363233066435837,0.9373611111111111,0.9158333333333334,0.970617042115573,False,"[[6749, 451, 0], [606, 6594, 0], [0, 120, 3964]]"
0.001,0.6,all,1677,0.9363233066435837,0.9373611111111111,0.9158333333333334,0.970617042115573,False,"[[6749, 451, 0], [606, 6594, 0], [0, 120, 3964]]"
0.001,0.7,all,1677,0.9363233066435837,0.9373611111111111,0.9158333333333334,0.970617042115573,False,"[[6749, 451, 0], [606, 6594, 0], [0, 120, 3964]]"
0.001,0.8,all,1677,0.9363233066435837,0.9373611111111111,0.9158333333333334,0.970617042115573,False,"[[6749, 451, 0], [606, 6594, 0], [0, 120, 3964]]"
0.001,0.95,all,1677,0.9363233066435837,0.9373611111111111,0.9158333333333334,0.970617042115573,False,"[[6749, 451, 0], [606, 6594, 0], [0, 120, 3964]]"
0.0001,0.3,all,2692,0.9356740965159056,0.9098611111111111,0.9416666666666667,0.970617042115573,False,"[[6551, 649, 0], [420, 6780, 0], [0, 120, 3964]]"
0.0001,0.35,all,2692,0.9356740965159056,0.9098611111111111,0.9416666666666667,0.970617042115573,False,"[[6551, 649, 0], [420, 6780, 0], [0, 120, 3964]]"
0.0001,0.4,all,2692,0.9356740965159056,0.9098611111111111,0.9416666666666667,0.970617042115573,False,"[[6551, 649, 0], [420, 6780, 0], [0, 120, 3964]]"
0.0001,0.45,all,2692,0.9356740965159056,0.9098611111111111,0.9416666666666667,0.970617042115573,False,"[[6551, 649, 0], [420, 6780, 0], [0, 120, 3964]]"
0.0001,0.5,all,2692,0.9356740965159056,0.9098611111111111,0.9416666666666667,0.970617042115573,False,"[[6551, 649, 0], [420, 6780, 0], [0, 120, 3964]]"
0.0001,0.55,all,2692,0.9356740965159056,0.9098611111111111,0.9416666666666667,0.970617042115573,False,"[[6551, 649, 0], [420, 6780, 0], [0, 120, 3964]]"
0.0001,0.6,all,2692,0.9356740965159056,0.9098611111111111,0.9416666666666667,0.970617042115573,False,"[[6551, 649, 0], [420, 6780, 0], [0, 120, 3964]]"
0.0001,0.7,all,2692,0.9356740965159056,0.9098611111111111,0.9416666666666667,0.970617042115573,False,"[[6551, 649, 0], [420, 6780, 0], [0, 120, 3964]]"
0.0001,0.8,all,2692,0.9356740965159056,0.9098611111111111,0.9416666666666667,0.970617042115573,False,"[[6551, 649, 0], [420, 6780, 0], [0, 120, 3964]]"
0.0001,0.95,all,2692,0.9356740965159056,0.9098611111111111,0.9416666666666667,0.970617042115573,False,"[[6551, 649, 0], [420, 6780, 0], [0, 120, 3964]]"
0.002,0.3,all,1444,0.9348625838563082,0.94125,0.9081944444444444,0.970617042115573,False,"[[6777, 423, 0], [661, 6539, 0], [0, 120, 3964]]"
0.002,0.35,all,1444,0.9348625838563082,0.94125,0.9081944444444444,0.970617042115573,False,"[[6777, 423, 0], [661, 6539, 0], [0, 120, 3964]]"
0.002,0.4,all,1444,0.9348625838563082,0.94125,0.9081944444444444,0.970617042115573,False,"[[6777, 423, 0], [661, 6539, 0], [0, 120, 3964]]"
0.002,0.45,all,1444,0.9348625838563082,0.94125,0.9081944444444444,0.970617042115573,False,"[[6777, 423, 0], [661, 6539, 0], [0, 120, 3964]]"
0.002,0.5,all,1444,0.9348625838563082,0.94125,0.9081944444444444,0.970617042115573,False,"[[6777, 423, 0], [661, 6539, 0], [0, 120, 3964]]"
0.002,0.55,all,1444,0.9348625838563082,0.94125,0.9081944444444444,0.970617042115573,False,"[[6777, 423, 0], [661, 6539, 0], [0, 120, 3964]]"
0.002,0.6,all,1444,0.9348625838563082,0.94125,0.9081944444444444,0.970617042115573,False,"[[6777, 423, 0], [661, 6539, 0], [0, 120, 3964]]"
0.002,0.7,all,1444,0.9348625838563082,0.94125,0.9081944444444444,0.970617042115573,False,"[[6777, 423, 0], [661, 6539, 0], [0, 120, 3964]]"
0.002,0.8,all,1444,0.9348625838563082,0.94125,0.9081944444444444,0.970617042115573,False,"[[6777, 423, 0], [661, 6539, 0], [0, 120, 3964]]"
0.002,0.95,all,1444,0.9348625838563082,0.94125,0.9081944444444444,0.970617042115573,False,"[[6777, 423, 0], [661, 6539, 0], [0, 120, 3964]]"
5e-05,0.3,all,3027,0.9347543821683618,0.8994444444444445,0.9497222222222222,0.970617042115573,False,"[[6476, 724, 0], [362, 6838, 0], [0, 120, 3964]]"
5e-05,0.35,all,3027,0.9347543821683618,0.8994444444444445,0.9497222222222222,0.970617042115573,False,"[[6476, 724, 0], [362, 6838, 0], [0, 120, 3964]]"
5e-05,0.4,all,3027,0.9347543821683618,0.8994444444444445,0.9497222222222222,0.970617042115573,False,"[[6476, 724, 0], [362, 6838, 0], [0, 120, 3964]]"
5e-05,0.45,all,3027,0.9347543821683618,0.8994444444444445,0.9497222222222222,0.970617042115573,False,"[[6476, 724, 0], [362, 6838, 0], [0, 120, 3964]]"
5e-05,0.5,all,3027,0.9347543821683618,0.8994444444444445,0.9497222222222222,0.970617042115573,False,"[[6476, 724, 0], [362, 6838, 0], [0, 120, 3964]]"
5e-05,0.55,all,3027,0.9347543821683618,0.8994444444444445,0.9497222222222222,0.970617042115573,False,"[[6476, 724, 0], [362, 6838, 0], [0, 120, 3964]]"
5e-05,0.6,all,3027,0.9347543821683618,0.8994444444444445,0.9497222222222222,0.970617042115573,False,"[[6476, 724, 0], [362, 6838, 0], [0, 120, 3964]]"
5e-05,0.7,all,3027,0.9347543821683618,0.8994444444444445,0.9497222222222222,0.970617042115573,False,"[[6476, 724, 0], [362, 6838, 0], [0, 120, 3964]]"
5e-05,0.8,all,3027,0.9347543821683618,0.8994444444444445,0.9497222222222222,0.970617042115573,False,"[[6476, 724, 0], [362, 6838, 0], [0, 120, 3964]]"
5e-05,0.95,all,3027,0.9347543821683618,0.8994444444444445,0.9497222222222222,0.970617042115573,False,"[[6476, 724, 0], [362, 6838, 0], [0, 120, 3964]]"
0.0,0.3,1200,1200,0.933834667820818,0.9469444444444445,0.8998611111111111,0.970617042115573,False,"[[6818, 382, 0], [721, 6479, 0], [0, 120, 3964]]"
0.0,0.35,1200,1200,0.933834667820818,0.9469444444444445,0.8998611111111111,0.970617042115573,False,"[[6818, 382, 0], [721, 6479, 0], [0, 120, 3964]]"
0.0,0.4,1200,1200,0.933834667820818,0.9469444444444445,0.8998611111111111,0.970617042115573,False,"[[6818, 382, 0], [721, 6479, 0], [0, 120, 3964]]"
0.0,0.45,1200,1200,0.933834667820818,0.9469444444444445,0.8998611111111111,0.970617042115573,False,"[[6818, 382, 0], [721, 6479, 0], [0, 120, 3964]]"
0.0,0.5,1200,1200,0.933834667820818,0.9469444444444445,0.8998611111111111,0.970617042115573,False,"[[6818, 382, 0], [721, 6479, 0], [0, 120, 3964]]"
0.0,0.55,1200,1200,0.933834667820818,0.9469444444444445,0.8998611111111111,0.970617042115573,False,"[[6818, 382, 0], [721, 6479, 0], [0, 120, 3964]]"
0.0,0.6,1200,1200,0.933834667820818,0.9469444444444445,0.8998611111111111,0.970617042115573,False,"[[6818, 382, 0], [721, 6479, 0], [0, 120, 3964]]"
0.0,0.7,1200,1200,0.933834667820818,0.9469444444444445,0.8998611111111111,0.970617042115573,False,"[[6818, 382, 0], [721, 6479, 0], [0, 120, 3964]]"
0.0,0.8,1200,1200,0.933834667820818,0.9469444444444445,0.8998611111111111,0.970617042115573,False,"[[6818, 382, 0], [721, 6479, 0], [0, 120, 3964]]"
0.0,0.95,1200,1200,0.933834667820818,0.9469444444444445,0.8998611111111111,0.970617042115573,False,"[[6818, 382, 0], [721, 6479, 0], [0, 120, 3964]]"
2e-05,0.3,1200,1200,0.933834667820818,0.9469444444444445,0.8998611111111111,0.970617042115573,False,"[[6818, 382, 0], [721, 6479, 0], [0, 120, 3964]]"
2e-05,0.35,1200,1200,0.933834667820818,0.9469444444444445,0.8998611111111111,0.970617042115573,False,"[[6818, 382, 0], [721, 6479, 0], [0, 120, 3964]]"
2e-05,0.4,1200,1200,0.933834667820818,0.9469444444444445,0.8998611111111111,0.970617042115573,False,"[[6818, 382, 0], [721, 6479, 0], [0, 120, 3964]]"
2e-05,0.45,1200,1200,0.933834667820818,0.9469444444444445,0.8998611111111111,0.970617042115573,False,"[[6818, 382, 0], [721, 6479, 0], [0, 120, 3964]]"
2e-05,0.5,1200,1200,0.933834667820818,0.9469444444444445,0.8998611111111111,0.970617042115573,False,"[[6818, 382, 0], [721, 6479, 0], [0, 120, 3964]]"
2e-05,0.55,1200,1200,0.933834667820818,0.9469444444444445,0.8998611111111111,0.970617042115573,False,"[[6818, 382, 0], [721, 6479, 0], [0, 120, 3964]]"
2e-05,0.6,1200,1200,0.933834667820818,0.9469444444444445,0.8998611111111111,0.970617042115573,False,"[[6818, 382, 0], [721, 6479, 0], [0, 120, 3964]]"
2e-05,0.7,1200,1200,0.933834667820818,0.9469444444444445,0.8998611111111111,0.970617042115573,False,"[[6818, 382, 0], [721, 6479, 0], [0, 120, 3964]]"
2e-05,0.8,1200,1200,0.933834667820818,0.9469444444444445,0.8998611111111111,0.970617042115573,False,"[[6818, 382, 0], [721, 6479, 0], [0, 120, 3964]]"
2e-05,0.95,1200,1200,0.933834667820818,0.9469444444444445,0.8998611111111111,0.970617042115573,False,"[[6818, 382, 0], [721, 6479, 0], [0, 120, 3964]]"
5e-05,0.3,1200,1200,0.933834667820818,0.9469444444444445,0.8998611111111111,0.970617042115573,False,"[[6818, 382, 0], [721, 6479, 0], [0, 120, 3964]]"
5e-05,0.35,1200,1200,0.933834667820818,0.9469444444444445,0.8998611111111111,0.970617042115573,False,"[[6818, 382, 0], [721, 6479, 0], [0, 120, 3964]]"
5e-05,0.4,1200,1200,0.933834667820818,0.9469444444444445,0.8998611111111111,0.970617042115573,False,"[[6818, 382, 0], [721, 6479, 0], [0, 120, 3964]]"
5e-05,0.45,1200,1200,0.933834667820818,0.9469444444444445,0.8998611111111111,0.970617042115573,False,"[[6818, 382, 0], [721, 6479, 0], [0, 120, 3964]]"
5e-05,0.5,1200,1200,0.933834667820818,0.9469444444444445,0.8998611111111111,0.970617042115573,False,"[[6818, 382, 0], [721, 6479, 0], [0, 120, 3964]]"
5e-05,0.55,1200,1200,0.933834667820818,0.9469444444444445,0.8998611111111111,0.970617042115573,False,"[[6818, 382, 0], [721, 6479, 0], [0, 120, 3964]]"
5e-05,0.6,1200,1200,0.933834667820818,0.9469444444444445,0.8998611111111111,0.970617042115573,False,"[[6818, 382, 0], [721, 6479, 0], [0, 120, 3964]]"
5e-05,0.7,1200,1200,0.933834667820818,0.9469444444444445,0.8998611111111111,0.970617042115573,False,"[[6818, 382, 0], [721, 6479, 0], [0, 120, 3964]]"
5e-05,0.8,1200,1200,0.933834667820818,0.9469444444444445,0.8998611111111111,0.970617042115573,False,"[[6818, 382, 0], [721, 6479, 0], [0, 120, 3964]]"
5e-05,0.95,1200,1200,0.933834667820818,0.9469444444444445,0.8998611111111111,0.970617042115573,False,"[[6818, 382, 0], [721, 6479, 0], [0, 120, 3964]]"
0.0001,0.3,1200,1200,0.933834667820818,0.9469444444444445,0.8998611111111111,0.970617042115573,False,"[[6818, 382, 0], [721, 6479, 0], [0, 120, 3964]]"
0.0001,0.35,1200,1200,0.933834667820818,0.9469444444444445,0.8998611111111111,0.970617042115573,False,"[[6818, 382, 0], [721, 6479, 0], [0, 120, 3964]]"
0.0001,0.4,1200,1200,0.933834667820818,0.9469444444444445,0.8998611111111111,0.970617042115573,False,"[[6818, 382, 0], [721, 6479, 0], [0, 120, 3964]]"
0.0001,0.45,1200,1200,0.933834667820818,0.9469444444444445,0.8998611111111111,0.970617042115573,False,"[[6818, 382, 0], [721, 6479, 0], [0, 120, 3964]]"
0.0001,0.5,1200,1200,0.933834667820818,0.9469444444444445,0.8998611111111111,0.970617042115573,False,"[[6818, 382, 0], [721, 6479, 0], [0, 120, 3964]]"
0.0001,0.55,1200,1200,0.933834667820818,0.9469444444444445,0.8998611111111111,0.970617042115573,False,"[[6818, 382, 0], [721, 6479, 0], [0, 120, 3964]]"
0.0001,0.6,1200,1200,0.933834667820818,0.9469444444444445,0.8998611111111111,0.970617042115573,False,"[[6818, 382, 0], [721, 6479, 0], [0, 120, 3964]]"
0.0001,0.7,1200,1200,0.933834667820818,0.9469444444444445,0.8998611111111111,0.970617042115573,False,"[[6818, 382, 0], [721, 6479, 0], [0, 120, 3964]]"
0.0001,0.8,1200,1200,0.933834667820818,0.9469444444444445,0.8998611111111111,0.970617042115573,False,"[[6818, 382, 0], [721, 6479, 0], [0, 120, 3964]]"
0.0001,0.95,1200,1200,0.933834667820818,0.9469444444444445,0.8998611111111111,0.970617042115573,False,"[[6818, 382, 0], [721, 6479, 0], [0, 120, 3964]]"
0.0002,0.3,1200,1200,0.933834667820818,0.9469444444444445,0.8998611111111111,0.970617042115573,False,"[[6818, 382, 0], [721, 6479, 0], [0, 120, 3964]]"
0.0002,0.35,1200,1200,0.933834667820818,0.9469444444444445,0.8998611111111111,0.970617042115573,False,"[[6818, 382, 0], [721, 6479, 0], [0, 120, 3964]]"
0.0002,0.4,1200,1200,0.933834667820818,0.9469444444444445,0.8998611111111111,0.970617042115573,False,"[[6818, 382, 0], [721, 6479, 0], [0, 120, 3964]]"
0.0002,0.45,1200,1200,0.933834667820818,0.9469444444444445,0.8998611111111111,0.970617042115573,False,"[[6818, 382, 0], [721, 6479, 0], [0, 120, 3964]]"
0.0002,0.5,1200,1200,0.933834667820818,0.9469444444444445,0.8998611111111111,0.970617042115573,False,"[[6818, 382, 0], [721, 6479, 0], [0, 120, 3964]]"
0.0002,0.55,1200,1200,0.933834667820818,0.9469444444444445,0.8998611111111111,0.970617042115573,False,"[[6818, 382, 0], [721, 6479, 0], [0, 120, 3964]]"
0.0002,0.6,1200,1200,0.933834667820818,0.9469444444444445,0.8998611111111111,0.970617042115573,False,"[[6818, 382, 0], [721, 6479, 0], [0, 120, 3964]]"
0.0002,0.7,1200,1200,0.933834667820818,0.9469444444444445,0.8998611111111111,0.970617042115573,False,"[[6818, 382, 0], [721, 6479, 0], [0, 120, 3964]]"
0.0002,0.8,1200,1200,0.933834667820818,0.9469444444444445,0.8998611111111111,0.970617042115573,False,"[[6818, 382, 0], [721, 6479, 0], [0, 120, 3964]]"
0.0002,0.95,1200,1200,0.933834667820818,0.9469444444444445,0.8998611111111111,0.970617042115573,False,"[[6818, 382, 0], [721, 6479, 0], [0, 120, 3964]]"
0.0005,0.3,1200,1200,0.933834667820818,0.9469444444444445,0.8998611111111111,0.970617042115573,False,"[[6818, 382, 0], [721, 6479, 0], [0, 120, 3964]]"
0.0005,0.35,1200,1200,0.933834667820818,0.9469444444444445,0.8998611111111111,0.970617042115573,False,"[[6818, 382, 0], [721, 6479, 0], [0, 120, 3964]]"
0.0005,0.4,1200,1200,0.933834667820818,0.9469444444444445,0.8998611111111111,0.970617042115573,False,"[[6818, 382, 0], [721, 6479, 0], [0, 120, 3964]]"
0.0005,0.45,1200,1200,0.933834667820818,0.9469444444444445,0.8998611111111111,0.970617042115573,False,"[[6818, 382, 0], [721, 6479, 0], [0, 120, 3964]]"
0.0005,0.5,1200,1200,0.933834667820818,0.9469444444444445,0.8998611111111111,0.970617042115573,False,"[[6818, 382, 0], [721, 6479, 0], [0, 120, 3964]]"
0.0005,0.55,1200,1200,0.933834667820818,0.9469444444444445,0.8998611111111111,0.970617042115573,False,"[[6818, 382, 0], [721, 6479, 0], [0, 120, 3964]]"
0.0005,0.6,1200,1200,0.933834667820818,0.9469444444444445,0.8998611111111111,0.970617042115573,False,"[[6818, 382, 0], [721, 6479, 0], [0, 120, 3964]]"
0.0005,0.7,1200,1200,0.933834667820818,0.9469444444444445,0.8998611111111111,0.970617042115573,False,"[[6818, 382, 0], [721, 6479, 0], [0, 120, 3964]]"
0.0005,0.8,1200,1200,0.933834667820818,0.9469444444444445,0.8998611111111111,0.970617042115573,False,"[[6818, 382, 0], [721, 6479, 0], [0, 120, 3964]]"
0.0005,0.95,1200,1200,0.933834667820818,0.9469444444444445,0.8998611111111111,0.970617042115573,False,"[[6818, 382, 0], [721, 6479, 0], [0, 120, 3964]]"
0.001,0.3,1200,1200,0.933834667820818,0.9469444444444445,0.8998611111111111,0.970617042115573,False,"[[6818, 382, 0], [721, 6479, 0], [0, 120, 3964]]"
0.001,0.35,1200,1200,0.933834667820818,0.9469444444444445,0.8998611111111111,0.970617042115573,False,"[[6818, 382, 0], [721, 6479, 0], [0, 120, 3964]]"
0.001,0.4,1200,1200,0.933834667820818,0.9469444444444445,0.8998611111111111,0.970617042115573,False,"[[6818, 382, 0], [721, 6479, 0], [0, 120, 3964]]"
0.001,0.45,1200,1200,0.933834667820818,0.9469444444444445,0.8998611111111111,0.970617042115573,False,"[[6818, 382, 0], [721, 6479, 0], [0, 120, 3964]]"
0.001,0.5,1200,1200,0.933834667820818,0.9469444444444445,0.8998611111111111,0.970617042115573,False,"[[6818, 382, 0], [721, 6479, 0], [0, 120, 3964]]"
0.001,0.55,1200,1200,0.933834667820818,0.9469444444444445,0.8998611111111111,0.970617042115573,False,"[[6818, 382, 0], [721, 6479, 0], [0, 120, 3964]]"
0.001,0.6,1200,1200,0.933834667820818,0.9469444444444445,0.8998611111111111,0.970617042115573,False,"[[6818, 382, 0], [721, 6479, 0], [0, 120, 3964]]"
0.001,0.7,1200,1200,0.933834667820818,0.9469444444444445,0.8998611111111111,0.970617042115573,False,"[[6818, 382, 0], [721, 6479, 0], [0, 120, 3964]]"
0.001,0.8,1200,1200,0.933834667820818,0.9469444444444445,0.8998611111111111,0.970617042115573,False,"[[6818, 382, 0], [721, 6479, 0], [0, 120, 3964]]"
0.001,0.95,1200,1200,0.933834667820818,0.9469444444444445,0.8998611111111111,0.970617042115573,False,"[[6818, 382, 0], [721, 6479, 0], [0, 120, 3964]]"
0.002,0.3,1200,1200,0.933834667820818,0.9469444444444445,0.8998611111111111,0.970617042115573,False,"[[6818, 382, 0], [721, 6479, 0], [0, 120, 3964]]"
0.002,0.35,1200,1200,0.933834667820818,0.9469444444444445,0.8998611111111111,0.970617042115573,False,"[[6818, 382, 0], [721, 6479, 0], [0, 120, 3964]]"
0.002,0.4,1200,1200,0.933834667820818,0.9469444444444445,0.8998611111111111,0.970617042115573,False,"[[6818, 382, 0], [721, 6479, 0], [0, 120, 3964]]"
0.002,0.45,1200,1200,0.933834667820818,0.9469444444444445,0.8998611111111111,0.970617042115573,False,"[[6818, 382, 0], [721, 6479, 0], [0, 120, 3964]]"
0.002,0.5,1200,1200,0.933834667820818,0.9469444444444445,0.8998611111111111,0.970617042115573,False,"[[6818, 382, 0], [721, 6479, 0], [0, 120, 3964]]"
0.002,0.55,1200,1200,0.933834667820818,0.9469444444444445,0.8998611111111111,0.970617042115573,False,"[[6818, 382, 0], [721, 6479, 0], [0, 120, 3964]]"
0.002,0.6,1200,1200,0.933834667820818,0.9469444444444445,0.8998611111111111,0.970617042115573,False,"[[6818, 382, 0], [721, 6479, 0], [0, 120, 3964]]"
0.002,0.7,1200,1200,0.933834667820818,0.9469444444444445,0.8998611111111111,0.970617042115573,False,"[[6818, 382, 0], [721, 6479, 0], [0, 120, 3964]]"
0.002,0.8,1200,1200,0.933834667820818,0.9469444444444445,0.8998611111111111,0.970617042115573,False,"[[6818, 382, 0], [721, 6479, 0], [0, 120, 3964]]"
0.002,0.95,1200,1200,0.933834667820818,0.9469444444444445,0.8998611111111111,0.970617042115573,False,"[[6818, 382, 0], [721, 6479, 0], [0, 120, 3964]]"
0.005,0.3,all,1170,0.9337805669768449,0.9475,0.8991666666666667,0.970617042115573,False,"[[6822, 378, 0], [726, 6474, 0], [0, 120, 3964]]"
0.005,0.3,1200,1170,0.9337805669768449,0.9475,0.8991666666666667,0.970617042115573,False,"[[6822, 378, 0], [726, 6474, 0], [0, 120, 3964]]"
0.005,0.35,all,1170,0.9337805669768449,0.9475,0.8991666666666667,0.970617042115573,False,"[[6822, 378, 0], [726, 6474, 0], [0, 120, 3964]]"
0.005,0.35,1200,1170,0.9337805669768449,0.9475,0.8991666666666667,0.970617042115573,False,"[[6822, 378, 0], [726, 6474, 0], [0, 120, 3964]]"
0.005,0.4,all,1170,0.9337805669768449,0.9475,0.8991666666666667,0.970617042115573,False,"[[6822, 378, 0], [726, 6474, 0], [0, 120, 3964]]"
0.005,0.4,1200,1170,0.9337805669768449,0.9475,0.8991666666666667,0.970617042115573,False,"[[6822, 378, 0], [726, 6474, 0], [0, 120, 3964]]"
0.005,0.45,all,1170,0.9337805669768449,0.9475,0.8991666666666667,0.970617042115573,False,"[[6822, 378, 0], [726, 6474, 0], [0, 120, 3964]]"
0.005,0.45,1200,1170,0.9337805669768449,0.9475,0.8991666666666667,0.970617042115573,False,"[[6822, 378, 0], [726, 6474, 0], [0, 120, 3964]]"
0.005,0.5,all,1170,0.9337805669768449,0.9475,0.8991666666666667,0.970617042115573,False,"[[6822, 378, 0], [726, 6474, 0], [0, 120, 3964]]"
0.005,0.5,1200,1170,0.9337805669768449,0.9475,0.8991666666666667,0.970617042115573,False,"[[6822, 378, 0], [726, 6474, 0], [0, 120, 3964]]"
0.005,0.55,all,1170,0.9337805669768449,0.9475,0.8991666666666667,0.970617042115573,False,"[[6822, 378, 0], [726, 6474, 0], [0, 120, 3964]]"
0.005,0.55,1200,1170,0.9337805669768449,0.9475,0.8991666666666667,0.970617042115573,False,"[[6822, 378, 0], [726, 6474, 0], [0, 120, 3964]]"
0.005,0.6,all,1170,0.9337805669768449,0.9475,0.8991666666666667,0.970617042115573,False,"[[6822, 378, 0], [726, 6474, 0], [0, 120, 3964]]"
0.005,0.6,1200,1170,0.9337805669768449,0.9475,0.8991666666666667,0.970617042115573,False,"[[6822, 378, 0], [726, 6474, 0], [0, 120, 3964]]"
0.005,0.7,all,1170,0.9337805669768449,0.9475,0.8991666666666667,0.970617042115573,False,"[[6822, 378, 0], [726, 6474, 0], [0, 120, 3964]]"
0.005,0.7,1200,1170,0.9337805669768449,0.9475,0.8991666666666667,0.970617042115573,False,"[[6822, 378, 0], [726, 6474, 0], [0, 120, 3964]]"
0.005,0.8,all,1170,0.9337805669768449,0.9475,0.8991666666666667,0.970617042115573,False,"[[6822, 378, 0], [726, 6474, 0], [0, 120, 3964]]"
0.005,0.8,1200,1170,0.9337805669768449,0.9475,0.8991666666666667,0.970617042115573,False,"[[6822, 378, 0], [726, 6474, 0], [0, 120, 3964]]"
0.005,0.95,all,1170,0.9337805669768449,0.9475,0.8991666666666667,0.970617042115573,False,"[[6822, 378, 0], [726, 6474, 0], [0, 120, 3964]]"
0.005,0.95,1200,1170,0.9337805669768449,0.9475,0.8991666666666667,0.970617042115573,False,"[[6822, 378, 0], [726, 6474, 0], [0, 120, 3964]]"
0.0,0.3,1000,1000,0.9322657433455962,0.9501388888888889,0.8926388888888889,0.970617042115573,False,"[[6841, 359, 0], [773, 6427, 0], [0, 120, 3964]]"
0.0,0.35,1000,1000,0.9322657433455962,0.9501388888888889,0.8926388888888889,0.970617042115573,False,"[[6841, 359, 0], [773, 6427, 0], [0, 120, 3964]]"
0.0,0.4,1000,1000,0.9322657433455962,0.9501388888888889,0.8926388888888889,0.970617042115573,False,"[[6841, 359, 0], [773, 6427, 0], [0, 120, 3964]]"
0.0,0.45,1000,1000,0.9322657433455962,0.9501388888888889,0.8926388888888889,0.970617042115573,False,"[[6841, 359, 0], [773, 6427, 0], [0, 120, 3964]]"
0.0,0.5,1000,1000,0.9322657433455962,0.9501388888888889,0.8926388888888889,0.970617042115573,False,"[[6841, 359, 0], [773, 6427, 0], [0, 120, 3964]]"
0.0,0.55,1000,1000,0.9322657433455962,0.9501388888888889,0.8926388888888889,0.970617042115573,False,"[[6841, 359, 0], [773, 6427, 0], [0, 120, 3964]]"
0.0,0.6,1000,1000,0.9322657433455962,0.9501388888888889,0.8926388888888889,0.970617042115573,False,"[[6841, 359, 0], [773, 6427, 0], [0, 120, 3964]]"
0.0,0.7,1000,1000,0.9322657433455962,0.9501388888888889,0.8926388888888889,0.970617042115573,False,"[[6841, 359, 0], [773, 6427, 0], [0, 120, 3964]]"
0.0,0.8,1000,1000,0.9322657433455962,0.9501388888888889,0.8926388888888889,0.970617042115573,False,"[[6841, 359, 0], [773, 6427, 0], [0, 120, 3964]]"
0.0,0.95,1000,1000,0.9322657433455962,0.9501388888888889,0.8926388888888889,0.970617042115573,False,"[[6841, 359, 0], [773, 6427, 0], [0, 120, 3964]]"
2e-05,0.3,1000,1000,0.9322657433455962,0.9501388888888889,0.8926388888888889,0.970617042115573,False,"[[6841, 359, 0], [773, 6427, 0], [0, 120, 3964]]"
2e-05,0.35,1000,1000,0.9322657433455962,0.9501388888888889,0.8926388888888889,0.970617042115573,False,"[[6841, 359, 0], [773, 6427, 0], [0, 120, 3964]]"
2e-05,0.4,1000,1000,0.9322657433455962,0.9501388888888889,0.8926388888888889,0.970617042115573,False,"[[6841, 359, 0], [773, 6427, 0], [0, 120, 3964]]"
2e-05,0.45,1000,1000,0.9322657433455962,0.9501388888888889,0.8926388888888889,0.970617042115573,False,"[[6841, 359, 0], [773, 6427, 0], [0, 120, 3964]]"
2e-05,0.5,1000,1000,0.9322657433455962,0.9501388888888889,0.8926388888888889,0.970617042115573,False,"[[6841, 359, 0], [773, 6427, 0], [0, 120, 3964]]"
2e-05,0.55,1000,1000,0.9322657433455962,0.9501388888888889,0.8926388888888889,0.970617042115573,False,"[[6841, 359, 0], [773, 6427, 0], [0, 120, 3964]]"
2e-05,0.6,1000,1000,0.9322657433455962,0.9501388888888889,0.8926388888888889,0.970617042115573,False,"[[6841, 359, 0], [773, 6427, 0], [0, 120, 3964]]"
2e-05,0.7,1000,1000,0.9322657433455962,0.9501388888888889,0.8926388888888889,0.970617042115573,False,"[[6841, 359, 0], [773, 6427, 0], [0, 120, 3964]]"
2e-05,0.8,1000,1000,0.9322657433455962,0.9501388888888889,0.8926388888888889,0.970617042115573,False,"[[6841, 359, 0], [773, 6427, 0], [0, 120, 3964]]"
2e-05,0.95,1000,1000,0.9322657433455962,0.9501388888888889,0.8926388888888889,0.970617042115573,False,"[[6841, 359, 0], [773, 6427, 0], [0, 120, 3964]]"
5e-05,0.3,1000,1000,0.9322657433455962,0.9501388888888889,0.8926388888888889,0.970617042115573,False,"[[6841, 359, 0], [773, 6427, 0], [0, 120, 3964]]"
5e-05,0.35,1000,1000,0.9322657433455962,0.9501388888888889,0.8926388888888889,0.970617042115573,False,"[[6841, 359, 0], [773, 6427, 0], [0, 120, 3964]]"
5e-05,0.4,1000,1000,0.9322657433455962,0.9501388888888889,0.8926388888888889,0.970617042115573,False,"[[6841, 359, 0], [773, 6427, 0], [0, 120, 3964]]"
5e-05,0.45,1000,1000,0.9322657433455962,0.9501388888888889,0.8926388888888889,0.970617042115573,False,"[[6841, 359, 0], [773, 6427, 0], [0, 120, 3964]]"
5e-05,0.5,1000,1000,0.9322657433455962,0.9501388888888889,0.8926388888888889,0.970617042115573,False,"[[6841, 359, 0], [773, 6427, 0], [0, 120, 3964]]"
5e-05,0.55,1000,1000,0.9322657433455962,0.9501388888888889,0.8926388888888889,0.970617042115573,False,"[[6841, 359, 0], [773, 6427, 0], [0, 120, 3964]]"
5e-05,0.6,1000,1000,0.9322657433455962,0.9501388888888889,0.8926388888888889,0.970617042115573,False,"[[6841, 359, 0], [773, 6427, 0], [0, 120, 3964]]"
5e-05,0.7,1000,1000,0.9322657433455962,0.9501388888888889,0.8926388888888889,0.970617042115573,False,"[[6841, 359, 0], [773, 6427, 0], [0, 120, 3964]]"
5e-05,0.8,1000,1000,0.9322657433455962,0.9501388888888889,0.8926388888888889,0.970617042115573,False,"[[6841, 359, 0], [773, 6427, 0], [0, 120, 3964]]"
5e-05,0.95,1000,1000,0.9322657433455962,0.9501388888888889,0.8926388888888889,0.970617042115573,False,"[[6841, 359, 0], [773, 6427, 0], [0, 120, 3964]]"
0.0001,0.3,1000,1000,0.9322657433455962,0.9501388888888889,0.8926388888888889,0.970617042115573,False,"[[6841, 359, 0], [773, 6427, 0], [0, 120, 3964]]"
0.0001,0.35,1000,1000,0.9322657433455962,0.9501388888888889,0.8926388888888889,0.970617042115573,False,"[[6841, 359, 0], [773, 6427, 0], [0, 120, 3964]]"
0.0001,0.4,1000,1000,0.9322657433455962,0.9501388888888889,0.8926388888888889,0.970617042115573,False,"[[6841, 359, 0], [773, 6427, 0], [0, 120, 3964]]"
0.0001,0.45,1000,1000,0.9322657433455962,0.9501388888888889,0.8926388888888889,0.970617042115573,False,"[[6841, 359, 0], [773, 6427, 0], [0, 120, 3964]]"
0.0001,0.5,1000,1000,0.9322657433455962,0.9501388888888889,0.8926388888888889,0.970617042115573,False,"[[6841, 359, 0], [773, 6427, 0], [0, 120, 3964]]"
0.0001,0.55,1000,1000,0.9322657433455962,0.9501388888888889,0.8926388888888889,0.970617042115573,False,"[[6841, 359, 0], [773, 6427, 0], [0, 120, 3964]]"
0.0001,0.6,1000,1000,0.9322657433455962,0.9501388888888889,0.8926388888888889,0.970617042115573,False,"[[6841, 359, 0], [773, 6427, 0], [0, 120, 3964]]"
0.0001,0.7,1000,1000,0.9322657433455962,0.9501388888888889,0.8926388888888889,0.970617042115573,False,"[[6841, 359, 0], [773, 6427, 0], [0, 120, 3964]]"
0.0001,0.8,1000,1000,0.9322657433455962,0.9501388888888889,0.8926388888888889,0.970617042115573,False,"[[6841, 359, 0], [773, 6427, 0], [0, 120, 3964]]"
0.0001,0.95,1000,1000,0.9322657433455962,0.9501388888888889,0.8926388888888889,0.970617042115573,False,"[[6841, 359, 0], [773, 6427, 0], [0, 120, 3964]]"
0.0002,0.3,1000,1000,0.9322657433455962,0.9501388888888889,0.8926388888888889,0.970617042115573,False,"[[6841, 359, 0], [773, 6427, 0], [0, 120, 3964]]"
0.0002,0.35,1000,1000,0.9322657433455962,0.9501388888888889,0.8926388888888889,0.970617042115573,False,"[[6841, 359, 0], [773, 6427, 0], [0, 120, 3964]]"
0.0002,0.4,1000,1000,0.9322657433455962,0.9501388888888889,0.8926388888888889,0.970617042115573,False,"[[6841, 359, 0], [773, 6427, 0], [0, 120, 3964]]"
0.0002,0.45,1000,1000,0.9322657433455962,0.9501388888888889,0.8926388888888889,0.970617042115573,False,"[[6841, 359, 0], [773, 6427, 0], [0, 120, 3964]]"
0.0002,0.5,1000,1000,0.9322657433455962,0.9501388888888889,0.8926388888888889,0.970617042115573,False,"[[6841, 359, 0], [773, 6427, 0], [0, 120, 3964]]"
0.0002,0.55,1000,1000,0.9322657433455962,0.9501388888888889,0.8926388888888889,0.970617042115573,False,"[[6841, 359, 0], [773, 6427, 0], [0, 120, 3964]]"
0.0002,0.6,1000,1000,0.9322657433455962,0.9501388888888889,0.8926388888888889,0.970617042115573,False,"[[6841, 359, 0], [773, 6427, 0], [0, 120, 3964]]"
0.0002,0.7,1000,1000,0.9322657433455962,0.9501388888888889,0.8926388888888889,0.970617042115573,False,"[[6841, 359, 0], [773, 6427, 0], [0, 120, 3964]]"
0.0002,0.8,1000,1000,0.9322657433455962,0.9501388888888889,0.8926388888888889,0.970617042115573,False,"[[6841, 359, 0], [773, 6427, 0], [0, 120, 3964]]"
0.0002,0.95,1000,1000,0.9322657433455962,0.9501388888888889,0.8926388888888889,0.970617042115573,False,"[[6841, 359, 0], [773, 6427, 0], [0, 120, 3964]]"
0.0005,0.3,1000,1000,0.9322657433455962,0.9501388888888889,0.8926388888888889,0.970617042115573,False,"[[6841, 359, 0], [773, 6427, 0], [0, 120, 3964]]"
0.0005,0.35,1000,1000,0.9322657433455962,0.9501388888888889,0.8926388888888889,0.970617042115573,False,"[[6841, 359, 0], [773, 6427, 0], [0, 120, 3964]]"
0.0005,0.4,1000,1000,0.9322657433455962,0.9501388888888889,0.8926388888888889,0.970617042115573,False,"[[6841, 359, 0], [773, 6427, 0], [0, 120, 3964]]"
0.0005,0.45,1000,1000,0.9322657433455962,0.9501388888888889,0.8926388888888889,0.970617042115573,False,"[[6841, 359, 0], [773, 6427, 0], [0, 120, 3964]]"
0.0005,0.5,1000,1000,0.9322657433455962,0.9501388888888889,0.8926388888888889,0.970617042115573,False,"[[6841, 359, 0], [773, 6427, 0], [0, 120, 3964]]"
0.0005,0.55,1000,1000,0.9322657433455962,0.9501388888888889,0.8926388888888889,0.970617042115573,False,"[[6841, 359, 0], [773, 6427, 0], [0, 120, 3964]]"
0.0005,0.6,1000,1000,0.9322657433455962,0.9501388888888889,0.8926388888888889,0.970617042115573,False,"[[6841, 359, 0], [773, 6427, 0], [0, 120, 3964]]"
0.0005,0.7,1000,1000,0.9322657433455962,0.9501388888888889,0.8926388888888889,0.970617042115573,False,"[[6841, 359, 0], [773, 6427, 0], [0, 120, 3964]]"
0.0005,0.8,1000,1000,0.9322657433455962,0.9501388888888889,0.8926388888888889,0.970617042115573,False,"[[6841, 359, 0], [773, 6427, 0], [0, 120, 3964]]"
0.0005,0.95,1000,1000,0.9322657433455962,0.9501388888888889,0.8926388888888889,0.970617042115573,False,"[[6841, 359, 0], [773, 6427, 0], [0, 120, 3964]]"
0.001,0.3,1000,1000,0.9322657433455962,0.9501388888888889,0.8926388888888889,0.970617042115573,False,"[[6841, 359, 0], [773, 6427, 0], [0, 120, 3964]]"
0.001,0.35,1000,1000,0.9322657433455962,0.9501388888888889,0.8926388888888889,0.970617042115573,False,"[[6841, 359, 0], [773, 6427, 0], [0, 120, 3964]]"
0.001,0.4,1000,1000,0.9322657433455962,0.9501388888888889,0.8926388888888889,0.970617042115573,False,"[[6841, 359, 0], [773, 6427, 0], [0, 120, 3964]]"
0.001,0.45,1000,1000,0.9322657433455962,0.9501388888888889,0.8926388888888889,0.970617042115573,False,"[[6841, 359, 0], [773, 6427, 0], [0, 120, 3964]]"
0.001,0.5,1000,1000,0.9322657433455962,0.9501388888888889,0.8926388888888889,0.970617042115573,False,"[[6841, 359, 0], [773, 6427, 0], [0, 120, 3964]]"
0.001,0.55,1000,1000,0.9322657433455962,0.9501388888888889,0.8926388888888889,0.970617042115573,False,"[[6841, 359, 0], [773, 6427, 0], [0, 120, 3964]]"
0.001,0.6,1000,1000,0.9322657433455962,0.9501388888888889,0.8926388888888889,0.970617042115573,False,"[[6841, 359, 0], [773, 6427, 0], [0, 120, 3964]]"
0.001,0.7,1000,1000,0.9322657433455962,0.9501388888888889,0.8926388888888889,0.970617042115573,False,"[[6841, 359, 0], [773, 6427, 0], [0, 120, 3964]]"
0.001,0.8,1000,1000,0.9322657433455962,0.9501388888888889,0.8926388888888889,0.970617042115573,False,"[[6841, 359, 0], [773, 6427, 0], [0, 120, 3964]]"
0.001,0.95,1000,1000,0.9322657433455962,0.9501388888888889,0.8926388888888889,0.970617042115573,False,"[[6841, 359, 0], [773, 6427, 0], [0, 120, 3964]]"
0.002,0.3,1000,1000,0.9322657433455962,0.9501388888888889,0.8926388888888889,0.970617042115573,False,"[[6841, 359, 0], [773, 6427, 0], [0, 120, 3964]]"
0.002,0.35,1000,1000,0.9322657433455962,0.9501388888888889,0.8926388888888889,0.970617042115573,False,"[[6841, 359, 0], [773, 6427, 0], [0, 120, 3964]]"
0.002,0.4,1000,1000,0.9322657433455962,0.9501388888888889,0.8926388888888889,0.970617042115573,False,"[[6841, 359, 0], [773, 6427, 0], [0, 120, 3964]]"
0.002,0.45,1000,1000,0.9322657433455962,0.9501388888888889,0.8926388888888889,0.970617042115573,False,"[[6841, 359, 0], [773, 6427, 0], [0, 120, 3964]]"
0.002,0.5,1000,1000,0.9322657433455962,0.9501388888888889,0.8926388888888889,0.970617042115573,False,"[[6841, 359, 0], [773, 6427, 0], [0, 120, 3964]]"
0.002,0.55,1000,1000,0.9322657433455962,0.9501388888888889,0.8926388888888889,0.970617042115573,False,"[[6841, 359, 0], [773, 6427, 0], [0, 120, 3964]]"
0.002,0.6,1000,1000,0.9322657433455962,0.9501388888888889,0.8926388888888889,0.970617042115573,False,"[[6841, 359, 0], [773, 6427, 0], [0, 120, 3964]]"
0.002,0.7,1000,1000,0.9322657433455962,0.9501388888888889,0.8926388888888889,0.970617042115573,False,"[[6841, 359, 0], [773, 6427, 0], [0, 120, 3964]]"
0.002,0.8,1000,1000,0.9322657433455962,0.9501388888888889,0.8926388888888889,0.970617042115573,False,"[[6841, 359, 0], [773, 6427, 0], [0, 120, 3964]]"
0.002,0.95,1000,1000,0.9322657433455962,0.9501388888888889,0.8926388888888889,0.970617042115573,False,"[[6841, 359, 0], [773, 6427, 0], [0, 120, 3964]]"
0.005,0.3,1000,1000,0.9322657433455962,0.9501388888888889,0.8926388888888889,0.970617042115573,False,"[[6841, 359, 0], [773, 6427, 0], [0, 120, 3964]]"
0.005,0.35,1000,1000,0.9322657433455962,0.9501388888888889,0.8926388888888889,0.970617042115573,False,"[[6841, 359, 0], [773, 6427, 0], [0, 120, 3964]]"
0.005,0.4,1000,1000,0.9322657433455962,0.9501388888888889,0.8926388888888889,0.970617042115573,False,"[[6841, 359, 0], [773, 6427, 0], [0, 120, 3964]]"
0.005,0.45,1000,1000,0.9322657433455962,0.9501388888888889,0.8926388888888889,0.970617042115573,False,"[[6841, 359, 0], [773, 6427, 0], [0, 120, 3964]]"
0.005,0.5,1000,1000,0.9322657433455962,0.9501388888888889,0.8926388888888889,0.970617042115573,False,"[[6841, 359, 0], [773, 6427, 0], [0, 120, 3964]]"
0.005,0.55,1000,1000,0.9322657433455962,0.9501388888888889,0.8926388888888889,0.970617042115573,False,"[[6841, 359, 0], [773, 6427, 0], [0, 120, 3964]]"
0.005,0.6,1000,1000,0.9322657433455962,0.9501388888888889,0.8926388888888889,0.970617042115573,False,"[[6841, 359, 0], [773, 6427, 0], [0, 120, 3964]]"
0.005,0.7,1000,1000,0.9322657433455962,0.9501388888888889,0.8926388888888889,0.970617042115573,False,"[[6841, 359, 0], [773, 6427, 0], [0, 120, 3964]]"
0.005,0.8,1000,1000,0.9322657433455962,0.9501388888888889,0.8926388888888889,0.970617042115573,False,"[[6841, 359, 0], [773, 6427, 0], [0, 120, 3964]]"
0.005,0.95,1000,1000,0.9322657433455962,0.9501388888888889,0.8926388888888889,0.970617042115573,False,"[[6841, 359, 0], [773, 6427, 0], [0, 120, 3964]]"
0.01,0.3,all,986,0.9321575416576499,0.9502777777777778,0.8922222222222222,0.970617042115573,False,"[[6842, 358, 0], [776, 6424, 0], [0, 120, 3964]]"
0.01,0.3,1000,986,0.9321575416576499,0.9502777777777778,0.8922222222222222,0.970617042115573,False,"[[6842, 358, 0], [776, 6424, 0], [0, 120, 3964]]"
0.01,0.3,1200,986,0.9321575416576499,0.9502777777777778,0.8922222222222222,0.970617042115573,False,"[[6842, 358, 0], [776, 6424, 0], [0, 120, 3964]]"
0.01,0.35,all,986,0.9321575416576499,0.9502777777777778,0.8922222222222222,0.970617042115573,False,"[[6842, 358, 0], [776, 6424, 0], [0, 120, 3964]]"
0.01,0.35,1000,986,0.9321575416576499,0.9502777777777778,0.8922222222222222,0.970617042115573,False,"[[6842, 358, 0], [776, 6424, 0], [0, 120, 3964]]"
0.01,0.35,1200,986,0.9321575416576499,0.9502777777777778,0.8922222222222222,0.970617042115573,False,"[[6842, 358, 0], [776, 6424, 0], [0, 120, 3964]]"
0.01,0.4,all,986,0.9321575416576499,0.9502777777777778,0.8922222222222222,0.970617042115573,False,"[[6842, 358, 0], [776, 6424, 0], [0, 120, 3964]]"
0.01,0.4,1000,986,0.9321575416576499,0.9502777777777778,0.8922222222222222,0.970617042115573,False,"[[6842, 358, 0], [776, 6424, 0], [0, 120, 3964]]"
0.01,0.4,1200,986,0.9321575416576499,0.9502777777777778,0.8922222222222222,0.970617042115573,False,"[[6842, 358, 0], [776, 6424, 0], [0, 120, 3964]]"
0.01,0.45,all,986,0.9321575416576499,0.9502777777777778,0.8922222222222222,0.970617042115573,False,"[[6842, 358, 0], [776, 6424, 0], [0, 120, 3964]]"
0.01,0.45,1000,986,0.9321575416576499,0.9502777777777778,0.8922222222222222,0.970617042115573,False,"[[6842, 358, 0], [776, 6424, 0], [0, 120, 3964]]"
0.01,0.45,1200,986,0.9321575416576499,0.9502777777777778,0.8922222222222222,0.970617042115573,False,"[[6842, 358, 0], [776, 6424, 0], [0, 120, 3964]]"
0.01,0.5,all,986,0.9321575416576499,0.9502777777777778,0.8922222222222222,0.970617042115573,False,"[[6842, 358, 0], [776, 6424, 0], [0, 120, 3964]]"
0.01,0.5,1000,986,0.9321575416576499,0.9502777777777778,0.8922222222222222,0.970617042115573,False,"[[6842, 358, 0], [776, 6424, 0], [0, 120, 3964]]"
0.01,0.5,1200,986,0.9321575416576499,0.9502777777777778,0.8922222222222222,0.970617042115573,False,"[[6842, 358, 0], [776, 6424, 0], [0, 120, 3964]]"
0.01,0.55,all,986,0.9321575416576499,0.9502777777777778,0.8922222222222222,0.970617042115573,False,"[[6842, 358, 0], [776, 6424, 0], [0, 120, 3964]]"
0.01,0.55,1000,986,0.9321575416576499,0.9502777777777778,0.8922222222222222,0.970617042115573,False,"[[6842, 358, 0], [776, 6424, 0], [0, 120, 3964]]"
0.01,0.55,1200,986,0.9321575416576499,0.9502777777777778,0.8922222222222222,0.970617042115573,False,"[[6842, 358, 0], [776, 6424, 0], [0, 120, 3964]]"
0.01,0.6,all,986,0.9321575416576499,0.9502777777777778,0.8922222222222222,0.970617042115573,False,"[[6842, 358, 0], [776, 6424, 0], [0, 120, 3964]]"
0.01,0.6,1000,986,0.9321575416576499,0.9502777777777778,0.8922222222222222,0.970617042115573,False,"[[6842, 358, 0], [776, 6424, 0], [0, 120, 3964]]"
0.01,0.6,1200,986,0.9321575416576499,0.9502777777777778,0.8922222222222222,0.970617042115573,False,"[[6842, 358, 0], [776, 6424, 0], [0, 120, 3964]]"
0.01,0.7,all,986,0.9321575416576499,0.9502777777777778,0.8922222222222222,0.970617042115573,False,"[[6842, 358, 0], [776, 6424, 0], [0, 120, 3964]]"
0.01,0.7,1000,986,0.9321575416576499,0.9502777777777778,0.8922222222222222,0.970617042115573,False,"[[6842, 358, 0], [776, 6424, 0], [0, 120, 3964]]"
0.01,0.7,1200,986,0.9321575416576499,0.9502777777777778,0.8922222222222222,0.970617042115573,False,"[[6842, 358, 0], [776, 6424, 0], [0, 120, 3964]]"
0.01,0.8,all,986,0.9321575416576499,0.9502777777777778,0.8922222222222222,0.970617042115573,False,"[[6842, 358, 0], [776, 6424, 0], [0, 120, 3964]]"
0.01,0.8,1000,986,0.9321575416576499,0.9502777777777778,0.8922222222222222,0.970617042115573,False,"[[6842, 358, 0], [776, 6424, 0], [0, 120, 3964]]"
0.01,0.8,1200,986,0.9321575416576499,0.9502777777777778,0.8922222222222222,0.970617042115573,False,"[[6842, 358, 0], [776, 6424, 0], [0, 120, 3964]]"
0.01,0.95,all,986,0.9321575416576499,0.9502777777777778,0.8922222222222222,0.970617042115573,False,"[[6842, 358, 0], [776, 6424, 0], [0, 120, 3964]]"
0.01,0.95,1000,986,0.9321575416576499,0.9502777777777778,0.8922222222222222,0.970617042115573,False,"[[6842, 358, 0], [776, 6424, 0], [0, 120, 3964]]"
0.01,0.95,1200,986,0.9321575416576499,0.9502777777777778,0.8922222222222222,0.970617042115573,False,"[[6842, 358, 0], [776, 6424, 0], [0, 120, 3964]]"
2e-05,0.3,all,3529,0.9320493399697035,0.8841666666666667,0.9580555555555555,0.970617042115573,False,"[[6366, 834, 0], [302, 6898, 0], [0, 120, 3964]]"
2e-05,0.35,all,3529,0.9320493399697035,0.8841666666666667,0.9580555555555555,0.970617042115573,False,"[[6366, 834, 0], [302, 6898, 0], [0, 120, 3964]]"
2e-05,0.4,all,3529,0.9320493399697035,0.8841666666666667,0.9580555555555555,0.970617042115573,False,"[[6366, 834, 0], [302, 6898, 0], [0, 120, 3964]]"
2e-05,0.45,all,3529,0.9320493399697035,0.8841666666666667,0.9580555555555555,0.970617042115573,False,"[[6366, 834, 0], [302, 6898, 0], [0, 120, 3964]]"
2e-05,0.5,all,3529,0.9320493399697035,0.8841666666666667,0.9580555555555555,0.970617042115573,False,"[[6366, 834, 0], [302, 6898, 0], [0, 120, 3964]]"
2e-05,0.55,all,3529,0.9320493399697035,0.8841666666666667,0.9580555555555555,0.970617042115573,False,"[[6366, 834, 0], [302, 6898, 0], [0, 120, 3964]]"
2e-05,0.6,all,3529,0.9320493399697035,0.8841666666666667,0.9580555555555555,0.970617042115573,False,"[[6366, 834, 0], [302, 6898, 0], [0, 120, 3964]]"
2e-05,0.7,all,3529,0.9320493399697035,0.8841666666666667,0.9580555555555555,0.970617042115573,False,"[[6366, 834, 0], [302, 6898, 0], [0, 120, 3964]]"
2e-05,0.8,all,3529,0.9320493399697035,0.8841666666666667,0.9580555555555555,0.970617042115573,False,"[[6366, 834, 0], [302, 6898, 0], [0, 120, 3964]]"
2e-05,0.95,all,3529,0.9320493399697035,0.8841666666666667,0.9580555555555555,0.970617042115573,False,"[[6366, 834, 0], [302, 6898, 0], [0, 120, 3964]]"
0.0,0.3,900,900,0.9316706340618913,0.9519444444444445,0.8893055555555556,0.970617042115573,False,"[[6854, 346, 0], [797, 6403, 0], [0, 120, 3964]]"
0.0,0.35,900,900,0.9316706340618913,0.9519444444444445,0.8893055555555556,0.970617042115573,False,"[[6854, 346, 0], [797, 6403, 0], [0, 120, 3964]]"
0.0,0.4,900,900,0.9316706340618913,0.9519444444444445,0.8893055555555556,0.970617042115573,False,"[[6854, 346, 0], [797, 6403, 0], [0, 120, 3964]]"
0.0,0.45,900,900,0.9316706340618913,0.9519444444444445,0.8893055555555556,0.970617042115573,False,"[[6854, 346, 0], [797, 6403, 0], [0, 120, 3964]]"
0.0,0.5,900,900,0.9316706340618913,0.9519444444444445,0.8893055555555556,0.970617042115573,False,"[[6854, 346, 0], [797, 6403, 0], [0, 120, 3964]]"
0.0,0.55,900,900,0.9316706340618913,0.9519444444444445,0.8893055555555556,0.970617042115573,False,"[[6854, 346, 0], [797, 6403, 0], [0, 120, 3964]]"
0.0,0.6,900,900,0.9316706340618913,0.9519444444444445,0.8893055555555556,0.970617042115573,False,"[[6854, 346, 0], [797, 6403, 0], [0, 120, 3964]]"
0.0,0.7,900,900,0.9316706340618913,0.9519444444444445,0.8893055555555556,0.970617042115573,False,"[[6854, 346, 0], [797, 6403, 0], [0, 120, 3964]]"
0.0,0.8,900,900,0.9316706340618913,0.9519444444444445,0.8893055555555556,0.970617042115573,False,"[[6854, 346, 0], [797, 6403, 0], [0, 120, 3964]]"
0.0,0.95,900,900,0.9316706340618913,0.9519444444444445,0.8893055555555556,0.970617042115573,False,"[[6854, 346, 0], [797, 6403, 0], [0, 120, 3964]]"
2e-05,0.3,900,900,0.9316706340618913,0.9519444444444445,0.8893055555555556,0.970617042115573,False,"[[6854, 346, 0], [797, 6403, 0], [0, 120, 3964]]"
2e-05,0.35,900,900,0.9316706340618913,0.9519444444444445,0.8893055555555556,0.970617042115573,False,"[[6854, 346, 0], [797, 6403, 0], [0, 120, 3964]]"
2e-05,0.4,900,900,0.9316706340618913,0.9519444444444445,0.8893055555555556,0.970617042115573,False,"[[6854, 346, 0], [797, 6403, 0], [0, 120, 3964]]"
2e-05,0.45,900,900,0.9316706340618913,0.9519444444444445,0.8893055555555556,0.970617042115573,False,"[[6854, 346, 0], [797, 6403, 0], [0, 120, 3964]]"
2e-05,0.5,900,900,0.9316706340618913,0.9519444444444445,0.8893055555555556,0.970617042115573,False,"[[6854, 346, 0], [797, 6403, 0], [0, 120, 3964]]"
2e-05,0.55,900,900,0.9316706340618913,0.9519444444444445,0.8893055555555556,0.970617042115573,False,"[[6854, 346, 0], [797, 6403, 0], [0, 120, 3964]]"
2e-05,0.6,900,900,0.9316706340618913,0.9519444444444445,0.8893055555555556,0.970617042115573,False,"[[6854, 346, 0], [797, 6403, 0], [0, 120, 3964]]"
2e-05,0.7,900,900,0.9316706340618913,0.9519444444444445,0.8893055555555556,0.970617042115573,False,"[[6854, 346, 0], [797, 6403, 0], [0, 120, 3964]]"
2e-05,0.8,900,900,0.9316706340618913,0.9519444444444445,0.8893055555555556,0.970617042115573,False,"[[6854, 346, 0], [797, 6403, 0], [0, 120, 3964]]"
2e-05,0.95,900,900,0.9316706340618913,0.9519444444444445,0.8893055555555556,0.970617042115573,False,"[[6854, 346, 0], [797, 6403, 0], [0, 120, 3964]]"
5e-05,0.3,900,900,0.9316706340618913,0.9519444444444445,0.8893055555555556,0.970617042115573,False,"[[6854, 346, 0], [797, 6403, 0], [0, 120, 3964]]"
5e-05,0.35,900,900,0.9316706340618913,0.9519444444444445,0.8893055555555556,0.970617042115573,False,"[[6854, 346, 0], [797, 6403, 0], [0, 120, 3964]]"
5e-05,0.4,900,900,0.9316706340618913,0.9519444444444445,0.8893055555555556,0.970617042115573,False,"[[6854, 346, 0], [797, 6403, 0], [0, 120, 3964]]"
5e-05,0.45,900,900,0.9316706340618913,0.9519444444444445,0.8893055555555556,0.970617042115573,False,"[[6854, 346, 0], [797, 6403, 0], [0, 120, 3964]]"
5e-05,0.5,900,900,0.9316706340618913,0.9519444444444445,0.8893055555555556,0.970617042115573,False,"[[6854, 346, 0], [797, 6403, 0], [0, 120, 3964]]"
5e-05,0.55,900,900,0.9316706340618913,0.9519444444444445,0.8893055555555556,0.970617042115573,False,"[[6854, 346, 0], [797, 6403, 0], [0, 120, 3964]]"
5e-05,0.6,900,900,0.9316706340618913,0.9519444444444445,0.8893055555555556,0.970617042115573,False,"[[6854, 346, 0], [797, 6403, 0], [0, 120, 3964]]"
5e-05,0.7,900,900,0.9316706340618913,0.9519444444444445,0.8893055555555556,0.970617042115573,False,"[[6854, 346, 0], [797, 6403, 0], [0, 120, 3964]]"
5e-05,0.8,900,900,0.9316706340618913,0.9519444444444445,0.8893055555555556,0.970617042115573,False,"[[6854, 346, 0], [797, 6403, 0], [0, 120, 3964]]"
5e-05,0.95,900,900,0.9316706340618913,0.9519444444444445,0.8893055555555556,0.970617042115573,False,"[[6854, 346, 0], [797, 6403, 0], [0, 120, 3964]]"
0.0001,0.3,900,900,0.9316706340618913,0.9519444444444445,0.8893055555555556,0.970617042115573,False,"[[6854, 346, 0], [797, 6403, 0], [0, 120, 3964]]"
0.0001,0.35,900,900,0.9316706340618913,0.9519444444444445,0.8893055555555556,0.970617042115573,False,"[[6854, 346, 0], [797, 6403, 0], [0, 120, 3964]]"
0.0001,0.4,900,900,0.9316706340618913,0.9519444444444445,0.8893055555555556,0.970617042115573,False,"[[6854, 346, 0], [797, 6403, 0], [0, 120, 3964]]"
0.0001,0.45,900,900,0.9316706340618913,0.9519444444444445,0.8893055555555556,0.970617042115573,False,"[[6854, 346, 0], [797, 6403, 0], [0, 120, 3964]]"
0.0001,0.5,900,900,0.9316706340618913,0.9519444444444445,0.8893055555555556,0.970617042115573,False,"[[6854, 346, 0], [797, 6403, 0], [0, 120, 3964]]"
0.0001,0.55,900,900,0.9316706340618913,0.9519444444444445,0.8893055555555556,0.970617042115573,False,"[[6854, 346, 0], [797, 6403, 0], [0, 120, 3964]]"
0.0001,0.6,900,900,0.9316706340618913,0.9519444444444445,0.8893055555555556,0.970617042115573,False,"[[6854, 346, 0], [797, 6403, 0], [0, 120, 3964]]"
0.0001,0.7,900,900,0.9316706340618913,0.9519444444444445,0.8893055555555556,0.970617042115573,False,"[[6854, 346, 0], [797, 6403, 0], [0, 120, 3964]]"
0.0001,0.8,900,900,0.9316706340618913,0.9519444444444445,0.8893055555555556,0.970617042115573,False,"[[6854, 346, 0], [797, 6403, 0], [0, 120, 3964]]"
0.0001,0.95,900,900,0.9316706340618913,0.9519444444444445,0.8893055555555556,0.970617042115573,False,"[[6854, 346, 0], [797, 6403, 0], [0, 120, 3964]]"
0.0002,0.3,900,900,0.9316706340618913,0.9519444444444445,0.8893055555555556,0.970617042115573,False,"[[6854, 346, 0], [797, 6403, 0], [0, 120, 3964]]"
0.0002,0.35,900,900,0.9316706340618913,0.9519444444444445,0.8893055555555556,0.970617042115573,False,"[[6854, 346, 0], [797, 6403, 0], [0, 120, 3964]]"
0.0002,0.4,900,900,0.9316706340618913,0.9519444444444445,0.8893055555555556,0.970617042115573,False,"[[6854, 346, 0], [797, 6403, 0], [0, 120, 3964]]"
0.0002,0.45,900,900,0.9316706340618913,0.9519444444444445,0.8893055555555556,0.970617042115573,False,"[[6854, 346, 0], [797, 6403, 0], [0, 120, 3964]]"
0.0002,0.5,900,900,0.9316706340618913,0.9519444444444445,0.8893055555555556,0.970617042115573,False,"[[6854, 346, 0], [797, 6403, 0], [0, 120, 3964]]"
0.0002,0.55,900,900,0.9316706340618913,0.9519444444444445,0.8893055555555556,0.970617042115573,False,"[[6854, 346, 0], [797, 6403, 0], [0, 120, 3964]]"
0.0002,0.6,900,900,0.9316706340618913,0.9519444444444445,0.8893055555555556,0.970617042115573,False,"[[6854, 346, 0], [797, 6403, 0], [0, 120, 3964]]"
0.0002,0.7,900,900,0.9316706340618913,0.9519444444444445,0.8893055555555556,0.970617042115573,False,"[[6854, 346, 0], [797, 6403, 0], [0, 120, 3964]]"
0.0002,0.8,900,900,0.9316706340618913,0.9519444444444445,0.8893055555555556,0.970617042115573,False,"[[6854, 346, 0], [797, 6403, 0], [0, 120, 3964]]"
0.0002,0.95,900,900,0.9316706340618913,0.9519444444444445,0.8893055555555556,0.970617042115573,False,"[[6854, 346, 0], [797, 6403, 0], [0, 120, 3964]]"
0.0005,0.3,900,900,0.9316706340618913,0.9519444444444445,0.8893055555555556,0.970617042115573,False,"[[6854, 346, 0], [797, 6403, 0], [0, 120, 3964]]"
0.0005,0.35,900,900,0.9316706340618913,0.9519444444444445,0.8893055555555556,0.970617042115573,False,"[[6854, 346, 0], [797, 6403, 0], [0, 120, 3964]]"
0.0005,0.4,900,900,0.9316706340618913,0.9519444444444445,0.8893055555555556,0.970617042115573,False,"[[6854, 346, 0], [797, 6403, 0], [0, 120, 3964]]"
0.0005,0.45,900,900,0.9316706340618913,0.9519444444444445,0.8893055555555556,0.970617042115573,False,"[[6854, 346, 0], [797, 6403, 0], [0, 120, 3964]]"
0.0005,0.5,900,900,0.9316706340618913,0.9519444444444445,0.8893055555555556,0.970617042115573,False,"[[6854, 346, 0], [797, 6403, 0], [0, 120, 3964]]"
0.0005,0.55,900,900,0.9316706340618913,0.9519444444444445,0.8893055555555556,0.970617042115573,False,"[[6854, 346, 0], [797, 6403, 0], [0, 120, 3964]]"
0.0005,0.6,900,900,0.9316706340618913,0.9519444444444445,0.8893055555555556,0.970617042115573,False,"[[6854, 346, 0], [797, 6403, 0], [0, 120, 3964]]"
0.0005,0.7,900,900,0.9316706340618913,0.9519444444444445,0.8893055555555556,0.970617042115573,False,"[[6854, 346, 0], [797, 6403, 0], [0, 120, 3964]]"
0.0005,0.8,900,900,0.9316706340618913,0.9519444444444445,0.8893055555555556,0.970617042115573,False,"[[6854, 346, 0], [797, 6403, 0], [0, 120, 3964]]"
0.0005,0.95,900,900,0.9316706340618913,0.9519444444444445,0.8893055555555556,0.970617042115573,False,"[[6854, 346, 0], [797, 6403, 0], [0, 120, 3964]]"
0.001,0.3,900,900,0.9316706340618913,0.9519444444444445,0.8893055555555556,0.970617042115573,False,"[[6854, 346, 0], [797, 6403, 0], [0, 120, 3964]]"
0.001,0.35,900,900,0.9316706340618913,0.9519444444444445,0.8893055555555556,0.970617042115573,False,"[[6854, 346, 0], [797, 6403, 0], [0, 120, 3964]]"
0.001,0.4,900,900,0.9316706340618913,0.9519444444444445,0.8893055555555556,0.970617042115573,False,"[[6854, 346, 0], [797, 6403, 0], [0, 120, 3964]]"
0.001,0.45,900,900,0.9316706340618913,0.9519444444444445,0.8893055555555556,0.970617042115573,False,"[[6854, 346, 0], [797, 6403, 0], [0, 120, 3964]]"
0.001,0.5,900,900,0.9316706340618913,0.9519444444444445,0.8893055555555556,0.970617042115573,False,"[[6854, 346, 0], [797, 6403, 0], [0, 120, 3964]]"
0.001,0.55,900,900,0.9316706340618913,0.9519444444444445,0.8893055555555556,0.970617042115573,False,"[[6854, 346, 0], [797, 6403, 0], [0, 120, 3964]]"
0.001,0.6,900,900,0.9316706340618913,0.9519444444444445,0.8893055555555556,0.970617042115573,False,"[[6854, 346, 0], [797, 6403, 0], [0, 120, 3964]]"
0.001,0.7,900,900,0.9316706340618913,0.9519444444444445,0.8893055555555556,0.970617042115573,False,"[[6854, 346, 0], [797, 6403, 0], [0, 120, 3964]]"
0.001,0.8,900,900,0.9316706340618913,0.9519444444444445,0.8893055555555556,0.970617042115573,False,"[[6854, 346, 0], [797, 6403, 0], [0, 120, 3964]]"
0.001,0.95,900,900,0.9316706340618913,0.9519444444444445,0.8893055555555556,0.970617042115573,False,"[[6854, 346, 0], [797, 6403, 0], [0, 120, 3964]]"
0.002,0.3,900,900,0.9316706340618913,0.9519444444444445,0.8893055555555556,0.970617042115573,False,"[[6854, 346, 0], [797, 6403, 0], [0, 120, 3964]]"
0.002,0.35,900,900,0.9316706340618913,0.9519444444444445,0.8893055555555556,0.970617042115573,False,"[[6854, 346, 0], [797, 6403, 0], [0, 120, 3964]]"
0.002,0.4,900,900,0.9316706340618913,0.9519444444444445,0.8893055555555556,0.970617042115573,False,"[[6854, 346, 0], [797, 6403, 0], [0, 120, 3964]]"
0.002,0.45,900,900,0.9316706340618913,0.9519444444444445,0.8893055555555556,0.970617042115573,False,"[[6854, 346, 0], [797, 6403, 0], [0, 120, 3964]]"
0.002,0.5,900,900,0.9316706340618913,0.9519444444444445,0.8893055555555556,0.970617042115573,False,"[[6854, 346, 0], [797, 6403, 0], [0, 120, 3964]]"
0.002,0.55,900,900,0.9316706340618913,0.9519444444444445,0.8893055555555556,0.970617042115573,False,"[[6854, 346, 0], [797, 6403, 0], [0, 120, 3964]]"
0.002,0.6,900,900,0.9316706340618913,0.9519444444444445,0.8893055555555556,0.970617042115573,False,"[[6854, 346, 0], [797, 6403, 0], [0, 120, 3964]]"
0.002,0.7,900,900,0.9316706340618913,0.9519444444444445,0.8893055555555556,0.970617042115573,False,"[[6854, 346, 0], [797, 6403, 0], [0, 120, 3964]]"
0.002,0.8,900,900,0.9316706340618913,0.9519444444444445,0.8893055555555556,0.970617042115573,False,"[[6854, 346, 0], [797, 6403, 0], [0, 120, 3964]]"
0.002,0.95,900,900,0.9316706340618913,0.9519444444444445,0.8893055555555556,0.970617042115573,False,"[[6854, 346, 0], [797, 6403, 0], [0, 120, 3964]]"
0.005,0.3,900,900,0.9316706340618913,0.9519444444444445,0.8893055555555556,0.970617042115573,False,"[[6854, 346, 0], [797, 6403, 0], [0, 120, 3964]]"
0.005,0.35,900,900,0.9316706340618913,0.9519444444444445,0.8893055555555556,0.970617042115573,False,"[[6854, 346, 0], [797, 6403, 0], [0, 120, 3964]]"
0.005,0.4,900,900,0.9316706340618913,0.9519444444444445,0.8893055555555556,0.970617042115573,False,"[[6854, 346, 0], [797, 6403, 0], [0, 120, 3964]]"
0.005,0.45,900,900,0.9316706340618913,0.9519444444444445,0.8893055555555556,0.970617042115573,False,"[[6854, 346, 0], [797, 6403, 0], [0, 120, 3964]]"
0.005,0.5,900,900,0.9316706340618913,0.9519444444444445,0.8893055555555556,0.970617042115573,False,"[[6854, 346, 0], [797, 6403, 0], [0, 120, 3964]]"
0.005,0.55,900,900,0.9316706340618913,0.9519444444444445,0.8893055555555556,0.970617042115573,False,"[[6854, 346, 0], [797, 6403, 0], [0, 120, 3964]]"
0.005,0.6,900,900,0.9316706340618913,0.9519444444444445,0.8893055555555556,0.970617042115573,False,"[[6854, 346, 0], [797, 6403, 0], [0, 120, 3964]]"
0.005,0.7,900,900,0.9316706340618913,0.9519444444444445,0.8893055555555556,0.970617042115573,False,"[[6854, 346, 0], [797, 6403, 0], [0, 120, 3964]]"
0.005,0.8,900,900,0.9316706340618913,0.9519444444444445,0.8893055555555556,0.970617042115573,False,"[[6854, 346, 0], [797, 6403, 0], [0, 120, 3964]]"
0.005,0.95,900,900,0.9316706340618913,0.9519444444444445,0.8893055555555556,0.970617042115573,False,"[[6854, 346, 0], [797, 6403, 0], [0, 120, 3964]]"
0.01,0.3,900,900,0.9316706340618913,0.9519444444444445,0.8893055555555556,0.970617042115573,False,"[[6854, 346, 0], [797, 6403, 0], [0, 120, 3964]]"
0.01,0.35,900,900,0.9316706340618913,0.9519444444444445,0.8893055555555556,0.970617042115573,False,"[[6854, 346, 0], [797, 6403, 0], [0, 120, 3964]]"
0.01,0.4,900,900,0.9316706340618913,0.9519444444444445,0.8893055555555556,0.970617042115573,False,"[[6854, 346, 0], [797, 6403, 0], [0, 120, 3964]]"
0.01,0.45,900,900,0.9316706340618913,0.9519444444444445,0.8893055555555556,0.970617042115573,False,"[[6854, 346, 0], [797, 6403, 0], [0, 120, 3964]]"
0.01,0.5,900,900,0.9316706340618913,0.9519444444444445,0.8893055555555556,0.970617042115573,False,"[[6854, 346, 0], [797, 6403, 0], [0, 120, 3964]]"
0.01,0.55,900,900,0.9316706340618913,0.9519444444444445,0.8893055555555556,0.970617042115573,False,"[[6854, 346, 0], [797, 6403, 0], [0, 120, 3964]]"
0.01,0.6,900,900,0.9316706340618913,0.9519444444444445,0.8893055555555556,0.970617042115573,False,"[[6854, 346, 0], [797, 6403, 0], [0, 120, 3964]]"
0.01,0.7,900,900,0.9316706340618913,0.9519444444444445,0.8893055555555556,0.970617042115573,False,"[[6854, 346, 0], [797, 6403, 0], [0, 120, 3964]]"
0.01,0.8,900,900,0.9316706340618913,0.9519444444444445,0.8893055555555556,0.970617042115573,False,"[[6854, 346, 0], [797, 6403, 0], [0, 120, 3964]]"
0.01,0.95,900,900,0.9316706340618913,0.9519444444444445,0.8893055555555556,0.970617042115573,False,"[[6854, 346, 0], [797, 6403, 0], [0, 120, 3964]]"
0.015,0.3,all,888,0.931562432373945,0.9520833333333333,0.8888888888888888,0.970617042115573,False,"[[6855, 345, 0], [800, 6400, 0], [0, 120, 3964]]"
0.015,0.3,900,888,0.931562432373945,0.9520833333333333,0.8888888888888888,0.970617042115573,False,"[[6855, 345, 0], [800, 6400, 0], [0, 120, 3964]]"
0.015,0.3,1000,888,0.931562432373945,0.9520833333333333,0.8888888888888888,0.970617042115573,False,"[[6855, 345, 0], [800, 6400, 0], [0, 120, 3964]]"
0.015,0.3,1200,888,0.931562432373945,0.9520833333333333,0.8888888888888888,0.970617042115573,False,"[[6855, 345, 0], [800, 6400, 0], [0, 120, 3964]]"
0.015,0.35,all,888,0.931562432373945,0.9520833333333333,0.8888888888888888,0.970617042115573,False,"[[6855, 345, 0], [800, 6400, 0], [0, 120, 3964]]"
0.015,0.35,900,888,0.931562432373945,0.9520833333333333,0.8888888888888888,0.970617042115573,False,"[[6855, 345, 0], [800, 6400, 0], [0, 120, 3964]]"
0.015,0.35,1000,888,0.931562432373945,0.9520833333333333,0.8888888888888888,0.970617042115573,False,"[[6855, 345, 0], [800, 6400, 0], [0, 120, 3964]]"
0.015,0.35,1200,888,0.931562432373945,0.9520833333333333,0.8888888888888888,0.970617042115573,False,"[[6855, 345, 0], [800, 6400, 0], [0, 120, 3964]]"
0.015,0.4,all,888,0.931562432373945,0.9520833333333333,0.8888888888888888,0.970617042115573,False,"[[6855, 345, 0], [800, 6400, 0], [0, 120, 3964]]"
0.015,0.4,900,888,0.931562432373945,0.9520833333333333,0.8888888888888888,0.970617042115573,False,"[[6855, 345, 0], [800, 6400, 0], [0, 120, 3964]]"
0.015,0.4,1000,888,0.931562432373945,0.9520833333333333,0.8888888888888888,0.970617042115573,False,"[[6855, 345, 0], [800, 6400, 0], [0, 120, 3964]]"
0.015,0.4,1200,888,0.931562432373945,0.9520833333333333,0.8888888888888888,0.970617042115573,False,"[[6855, 345, 0], [800, 6400, 0], [0, 120, 3964]]"
0.015,0.45,all,888,0.931562432373945,0.9520833333333333,0.8888888888888888,0.970617042115573,False,"[[6855, 345, 0], [800, 6400, 0], [0, 120, 3964]]"
0.015,0.45,900,888,0.931562432373945,0.9520833333333333,0.8888888888888888,0.970617042115573,False,"[[6855, 345, 0], [800, 6400, 0], [0, 120, 3964]]"
0.015,0.45,1000,888,0.931562432373945,0.9520833333333333,0.8888888888888888,0.970617042115573,False,"[[6855, 345, 0], [800, 6400, 0], [0, 120, 3964]]"
0.015,0.45,1200,888,0.931562432373945,0.9520833333333333,0.8888888888888888,0.970617042115573,False,"[[6855, 345, 0], [800, 6400, 0], [0, 120, 3964]]"
0.015,0.5,all,888,0.931562432373945,0.9520833333333333,0.8888888888888888,0.970617042115573,False,"[[6855, 345, 0], [800, 6400, 0], [0, 120, 3964]]"
0.015,0.5,900,888,0.931562432373945,0.9520833333333333,0.8888888888888888,0.970617042115573,False,"[[6855, 345, 0], [800, 6400, 0], [0, 120, 3964]]"
0.015,0.5,1000,888,0.931562432373945,0.9520833333333333,0.8888888888888888,0.970617042115573,False,"[[6855, 345, 0], [800, 6400, 0], [0, 120, 3964]]"
0.015,0.5,1200,888,0.931562432373945,0.9520833333333333,0.8888888888888888,0.970617042115573,False,"[[6855, 345, 0], [800, 6400, 0], [0, 120, 3964]]"
0.015,0.55,all,888,0.931562432373945,0.9520833333333333,0.8888888888888888,0.970617042115573,False,"[[6855, 345, 0], [800, 6400, 0], [0, 120, 3964]]"
0.015,0.55,900,888,0.931562432373945,0.9520833333333333,0.8888888888888888,0.970617042115573,False,"[[6855, 345, 0], [800, 6400, 0], [0, 120, 3964]]"
0.015,0.55,1000,888,0.931562432373945,0.9520833333333333,0.8888888888888888,0.970617042115573,False,"[[6855, 345, 0], [800, 6400, 0], [0, 120, 3964]]"
0.015,0.55,1200,888,0.931562432373945,0.9520833333333333,0.8888888888888888,0.970617042115573,False,"[[6855, 345, 0], [800, 6400, 0], [0, 120, 3964]]"
0.015,0.6,all,888,0.931562432373945,0.9520833333333333,0.8888888888888888,0.970617042115573,False,"[[6855, 345, 0], [800, 6400, 0], [0, 120, 3964]]"
0.015,0.6,900,888,0.931562432373945,0.9520833333333333,0.8888888888888888,0.970617042115573,False,"[[6855, 345, 0], [800, 6400, 0], [0, 120, 3964]]"
0.015,0.6,1000,888,0.931562432373945,0.9520833333333333,0.8888888888888888,0.970617042115573,False,"[[6855, 345, 0], [800, 6400, 0], [0, 120, 3964]]"
0.015,0.6,1200,888,0.931562432373945,0.9520833333333333,0.8888888888888888,0.970617042115573,False,"[[6855, 345, 0], [800, 6400, 0], [0, 120, 3964]]"
0.015,0.7,all,888,0.931562432373945,0.9520833333333333,0.8888888888888888,0.970617042115573,False,"[[6855, 345, 0], [800, 6400, 0], [0, 120, 3964]]"
0.015,0.7,900,888,0.931562432373945,0.9520833333333333,0.8888888888888888,0.970617042115573,False,"[[6855, 345, 0], [800, 6400, 0], [0, 120, 3964]]"
0.015,0.7,1000,888,0.931562432373945,0.9520833333333333,0.8888888888888888,0.970617042115573,False,"[[6855, 345, 0], [800, 6400, 0], [0, 120, 3964]]"
0.015,0.7,1200,888,0.931562432373945,0.9520833333333333,0.8888888888888888,0.970617042115573,False,"[[6855, 345, 0], [800, 6400, 0], [0, 120, 3964]]"
0.015,0.8,all,888,0.931562432373945,0.9520833333333333,0.8888888888888888,0.970617042115573,False,"[[6855, 345, 0], [800, 6400, 0], [0, 120, 3964]]"
0.015,0.8,900,888,0.931562432373945,0.9520833333333333,0.8888888888888888,0.970617042115573,False,"[[6855, 345, 0], [800, 6400, 0], [0, 120, 3964]]"
0.015,0.8,1000,888,0.931562432373945,0.9520833333333333,0.8888888888888888,0.970617042115573,False,"[[6855, 345, 0], [800, 6400, 0], [0, 120, 3964]]"
0.015,0.8,1200,888,0.931562432373945,0.9520833333333333,0.8888888888888888,0.970617042115573,False,"[[6855, 345, 0], [800, 6400, 0], [0, 120, 3964]]"
0.015,0.95,all,888,0.931562432373945,0.9520833333333333,0.8888888888888888,0.970617042115573,False,"[[6855, 345, 0], [800, 6400, 0], [0, 120, 3964]]"
0.015,0.95,900,888,0.931562432373945,0.9520833333333333,0.8888888888888888,0.970617042115573,False,"[[6855, 345, 0], [800, 6400, 0], [0, 120, 3964]]"
0.015,0.95,1000,888,0.931562432373945,0.9520833333333333,0.8888888888888888,0.970617042115573,False,"[[6855, 345, 0], [800, 6400, 0], [0, 120, 3964]]"
0.015,0.95,1200,888,0.931562432373945,0.9520833333333333,0.8888888888888888,0.970617042115573,False,"[[6855, 345, 0], [800, 6400, 0], [0, 120, 3964]]"
0.02,0.3,all,819,0.9310755247781866,0.9530555555555555,0.8866666666666667,0.970617042115573,False,"[[6862, 338, 0], [816, 6384, 0], [0, 120, 3964]]"
0.02,0.3,900,819,0.9310755247781866,0.9530555555555555,0.8866666666666667,0.970617042115573,False,"[[6862, 338, 0], [816, 6384, 0], [0, 120, 3964]]"
0.02,0.3,1000,819,0.9310755247781866,0.9530555555555555,0.8866666666666667,0.970617042115573,False,"[[6862, 338, 0], [816, 6384, 0], [0, 120, 3964]]"
0.02,0.3,1200,819,0.9310755247781866,0.9530555555555555,0.8866666666666667,0.970617042115573,False,"[[6862, 338, 0], [816, 6384, 0], [0, 120, 3964]]"
0.02,0.35,all,819,0.9310755247781866,0.9530555555555555,0.8866666666666667,0.970617042115573,False,"[[6862, 338, 0], [816, 6384, 0], [0, 120, 3964]]"
0.02,0.35,900,819,0.9310755247781866,0.9530555555555555,0.8866666666666667,0.970617042115573,False,"[[6862, 338, 0], [816, 6384, 0], [0, 120, 3964]]"
0.02,0.35,1000,819,0.9310755247781866,0.9530555555555555,0.8866666666666667,0.970617042115573,False,"[[6862, 338, 0], [816, 6384, 0], [0, 120, 3964]]"
0.02,0.35,1200,819,0.9310755247781866,0.9530555555555555,0.8866666666666667,0.970617042115573,False,"[[6862, 338, 0], [816, 6384, 0], [0, 120, 3964]]"
0.02,0.4,all,819,0.9310755247781866,0.9530555555555555,0.8866666666666667,0.970617042115573,False,"[[6862, 338, 0], [816, 6384, 0], [0, 120, 3964]]"
0.02,0.4,900,819,0.9310755247781866,0.9530555555555555,0.8866666666666667,0.970617042115573,False,"[[6862, 338, 0], [816, 6384, 0], [0, 120, 3964]]"
0.02,0.4,1000,819,0.9310755247781866,0.9530555555555555,0.8866666666666667,0.970617042115573,False,"[[6862, 338, 0], [816, 6384, 0], [0, 120, 3964]]"
0.02,0.4,1200,819,0.9310755247781866,0.9530555555555555,0.8866666666666667,0.970617042115573,False,"[[6862, 338, 0], [816, 6384, 0], [0, 120, 3964]]"
0.02,0.45,all,819,0.9310755247781866,0.9530555555555555,0.8866666666666667,0.970617042115573,False,"[[6862, 338, 0], [816, 6384, 0], [0, 120, 3964]]"
0.02,0.45,900,819,0.9310755247781866,0.9530555555555555,0.8866666666666667,0.970617042115573,False,"[[6862, 338, 0], [816, 6384, 0], [0, 120, 3964]]"
0.02,0.45,1000,819,0.9310755247781866,0.9530555555555555,0.8866666666666667,0.970617042115573,False,"[[6862, 338, 0], [816, 6384, 0], [0, 120, 3964]]"
0.02,0.45,1200,819,0.9310755247781866,0.9530555555555555,0.8866666666666667,0.970617042115573,False,"[[6862, 338, 0], [816, 6384, 0], [0, 120, 3964]]"
0.02,0.5,all,819,0.9310755247781866,0.9530555555555555,0.8866666666666667,0.970617042115573,False,"[[6862, 338, 0], [816, 6384, 0], [0, 120, 3964]]"
0.02,0.5,900,819,0.9310755247781866,0.9530555555555555,0.8866666666666667,0.970617042115573,False,"[[6862, 338, 0], [816, 6384, 0], [0, 120, 3964]]"
0.02,0.5,1000,819,0.9310755247781866,0.9530555555555555,0.8866666666666667,0.970617042115573,False,"[[6862, 338, 0], [816, 6384, 0], [0, 120, 3964]]"
0.02,0.5,1200,819,0.9310755247781866,0.9530555555555555,0.8866666666666667,0.970617042115573,False,"[[6862, 338, 0], [816, 6384, 0], [0, 120, 3964]]"
0.02,0.55,all,819,0.9310755247781866,0.9530555555555555,0.8866666666666667,0.970617042115573,False,"[[6862, 338, 0], [816, 6384, 0], [0, 120, 3964]]"
0.02,0.55,900,819,0.9310755247781866,0.9530555555555555,0.8866666666666667,0.970617042115573,False,"[[6862, 338, 0], [816, 6384, 0], [0, 120, 3964]]"
0.02,0.55,1000,819,0.9310755247781866,0.9530555555555555,0.8866666666666667,0.970617042115573,False,"[[6862, 338, 0], [816, 6384, 0], [0, 120, 3964]]"
0.02,0.55,1200,819,0.9310755247781866,0.9530555555555555,0.8866666666666667,0.970617042115573,False,"[[6862, 338, 0], [816, 6384, 0], [0, 120, 3964]]"
0.02,0.6,all,819,0.9310755247781866,0.9530555555555555,0.8866666666666667,0.970617042115573,False,"[[6862, 338, 0], [816, 6384, 0], [0, 120, 3964]]"
0.02,0.6,900,819,0.9310755247781866,0.9530555555555555,0.8866666666666667,0.970617042115573,False,"[[6862, 338, 0], [816, 6384, 0], [0, 120, 3964]]"
0.02,0.6,1000,819,0.9310755247781866,0.9530555555555555,0.8866666666666667,0.970617042115573,False,"[[6862, 338, 0], [816, 6384, 0], [0, 120, 3964]]"
0.02,0.6,1200,819,0.9310755247781866,0.9530555555555555,0.8866666666666667,0.970617042115573,False,"[[6862, 338, 0], [816, 6384, 0], [0, 120, 3964]]"
0.02,0.7,all,819,0.9310755247781866,0.9530555555555555,0.8866666666666667,0.970617042115573,False,"[[6862, 338, 0], [816, 6384, 0], [0, 120, 3964]]"
0.02,0.7,900,819,0.9310755247781866,0.9530555555555555,0.8866666666666667,0.970617042115573,False,"[[6862, 338, 0], [816, 6384, 0], [0, 120, 3964]]"
0.02,0.7,1000,819,0.9310755247781866,0.9530555555555555,0.8866666666666667,0.970617042115573,False,"[[6862, 338, 0], [816, 6384, 0], [0, 120, 3964]]"
0.02,0.7,1200,819,0.9310755247781866,0.9530555555555555,0.8866666666666667,0.970617042115573,False,"[[6862, 338, 0], [816, 6384, 0], [0, 120, 3964]]"
0.02,0.8,all,819,0.9310755247781866,0.9530555555555555,0.8866666666666667,0.970617042115573,False,"[[6862, 338, 0], [816, 6384, 0], [0, 120, 3964]]"
0.02,0.8,900,819,0.9310755247781866,0.9530555555555555,0.8866666666666667,0.970617042115573,False,"[[6862, 338, 0], [816, 6384, 0], [0, 120, 3964]]"
0.02,0.8,1000,819,0.9310755247781866,0.9530555555555555,0.8866666666666667,0.970617042115573,False,"[[6862, 338, 0], [816, 6384, 0], [0, 120, 3964]]"
0.02,0.8,1200,819,0.9310755247781866,0.9530555555555555,0.8866666666666667,0.970617042115573,False,"[[6862, 338, 0], [816, 6384, 0], [0, 120, 3964]]"
0.02,0.95,all,819,0.9310755247781866,0.9530555555555555,0.8866666666666667,0.970617042115573,False,"[[6862, 338, 0], [816, 6384, 0], [0, 120, 3964]]"
0.02,0.95,900,819,0.9310755247781866,0.9530555555555555,0.8866666666666667,0.970617042115573,False,"[[6862, 338, 0], [816, 6384, 0], [0, 120, 3964]]"
0.02,0.95,1000,819,0.9310755247781866,0.9530555555555555,0.8866666666666667,0.970617042115573,False,"[[6862, 338, 0], [816, 6384, 0], [0, 120, 3964]]"
0.02,0.95,1200,819,0.9310755247781866,0.9530555555555555,0.8866666666666667,0.970617042115573,False,"[[6862, 338, 0], [816, 6384, 0], [0, 120, 3964]]"
0.0,0.3,800,800,0.930913222246267,0.9534722222222223,0.8858333333333334,0.970617042115573,False,"[[6865, 335, 0], [822, 6378, 0], [1, 119, 3964]]"
0.0,0.35,800,800,0.930913222246267,0.9534722222222223,0.8858333333333334,0.970617042115573,False,"[[6865, 335, 0], [822, 6378, 0], [1, 119, 3964]]"
0.0,0.4,800,800,0.930913222246267,0.9534722222222223,0.8858333333333334,0.970617042115573,False,"[[6865, 335, 0], [822, 6378, 0], [1, 119, 3964]]"
0.0,0.45,800,800,0.930913222246267,0.9534722222222223,0.8858333333333334,0.970617042115573,False,"[[6865, 335, 0], [822, 6378, 0], [1, 119, 3964]]"
0.0,0.5,800,800,0.930913222246267,0.9534722222222223,0.8858333333333334,0.970617042115573,False,"[[6865, 335, 0], [822, 6378, 0], [1, 119, 3964]]"
0.0,0.55,800,800,0.930913222246267,0.9534722222222223,0.8858333333333334,0.970617042115573,False,"[[6865, 335, 0], [822, 6378, 0], [1, 119, 3964]]"
0.0,0.6,800,800,0.930913222246267,0.9534722222222223,0.8858333333333334,0.970617042115573,False,"[[6865, 335, 0], [822, 6378, 0], [1, 119, 3964]]"
0.0,0.7,800,800,0.930913222246267,0.9534722222222223,0.8858333333333334,0.970617042115573,False,"[[6865, 335, 0], [822, 6378, 0], [1, 119, 3964]]"
0.0,0.8,800,800,0.930913222246267,0.9534722222222223,0.8858333333333334,0.970617042115573,False,"[[6865, 335, 0], [822, 6378, 0], [1, 119, 3964]]"
0.0,0.95,800,800,0.930913222246267,0.9534722222222223,0.8858333333333334,0.970617042115573,False,"[[6865, 335, 0], [822, 6378, 0], [1, 119, 3964]]"
2e-05,0.3,800,800,0.930913222246267,0.9534722222222223,0.8858333333333334,0.970617042115573,False,"[[6865, 335, 0], [822, 6378, 0], [1, 119, 3964]]"
2e-05,0.35,800,800,0.930913222246267,0.9534722222222223,0.8858333333333334,0.970617042115573,False,"[[6865, 335, 0], [822, 6378, 0], [1, 119, 3964]]"
2e-05,0.4,800,800,0.930913222246267,0.9534722222222223,0.8858333333333334,0.970617042115573,False,"[[6865, 335, 0], [822, 6378, 0], [1, 119, 3964]]"
2e-05,0.45,800,800,0.930913222246267,0.9534722222222223,0.8858333333333334,0.970617042115573,False,"[[6865, 335, 0], [822, 6378, 0], [1, 119, 3964]]"
2e-05,0.5,800,800,0.930913222246267,0.9534722222222223,0.8858333333333334,0.970617042115573,False,"[[6865, 335, 0], [822, 6378, 0], [1, 119, 3964]]"
2e-05,0.55,800,800,0.930913222246267,0.9534722222222223,0.8858333333333334,0.970617042115573,False,"[[6865, 335, 0], [822, 6378, 0], [1, 119, 3964]]"
2e-05,0.6,800,800,0.930913222246267,0.9534722222222223,0.8858333333333334,0.970617042115573,False,"[[6865, 335, 0], [822, 6378, 0], [1, 119, 3964]]"
2e-05,0.7,800,800,0.930913222246267,0.9534722222222223,0.8858333333333334,0.970617042115573,False,"[[6865, 335, 0], [822, 6378, 0], [1, 119, 3964]]"
2e-05,0.8,800,800,0.930913222246267,0.9534722222222223,0.8858333333333334,0.970617042115573,False,"[[6865, 335, 0], [822, 6378, 0], [1, 119, 3964]]"
2e-05,0.95,800,800,0.930913222246267,0.9534722222222223,0.8858333333333334,0.970617042115573,False,"[[6865, 335, 0], [822, 6378, 0], [1, 119, 3964]]"
5e-05,0.3,800,800,0.930913222246267,0.9534722222222223,0.8858333333333334,0.970617042115573,False,"[[6865, 335, 0], [822, 6378, 0], [1, 119, 3964]]"
5e-05,0.35,800,800,0.930913222246267,0.9534722222222223,0.8858333333333334,0.970617042115573,False,"[[6865, 335, 0], [822, 6378, 0], [1, 119, 3964]]"
5e-05,0.4,800,800,0.930913222246267,0.9534722222222223,0.8858333333333334,0.970617042115573,False,"[[6865, 335, 0], [822, 6378, 0], [1, 119, 3964]]"
5e-05,0.45,800,800,0.930913222246267,0.9534722222222223,0.8858333333333334,0.970617042115573,False,"[[6865, 335, 0], [822, 6378, 0], [1, 119, 3964]]"
5e-05,0.5,800,800,0.930913222246267,0.9534722222222223,0.8858333333333334,0.970617042115573,False,"[[6865, 335, 0], [822, 6378, 0], [1, 119, 3964]]"
5e-05,0.55,800,800,0.930913222246267,0.9534722222222223,0.8858333333333334,0.970617042115573,False,"[[6865, 335, 0], [822, 6378, 0], [1, 119, 3964]]"
5e-05,0.6,800,800,0.930913222246267,0.9534722222222223,0.8858333333333334,0.970617042115573,False,"[[6865, 335, 0], [822, 6378, 0], [1, 119, 3964]]"
5e-05,0.7,800,800,0.930913222246267,0.9534722222222223,0.8858333333333334,0.970617042115573,False,"[[6865, 335, 0], [822, 6378, 0], [1, 119, 3964]]"
5e-05,0.8,800,800,0.930913222246267,0.9534722222222223,0.8858333333333334,0.970617042115573,False,"[[6865, 335, 0], [822, 6378, 0], [1, 119, 3964]]"
5e-05,0.95,800,800,0.930913222246267,0.9534722222222223,0.8858333333333334,0.970617042115573,False,"[[6865, 335, 0], [822, 6378, 0], [1, 119, 3964]]"
0.0001,0.3,800,800,0.930913222246267,0.9534722222222223,0.8858333333333334,0.970617042115573,False,"[[6865, 335, 0], [822, 6378, 0], [1, 119, 3964]]"
0.0001,0.35,800,800,0.930913222246267,0.9534722222222223,0.8858333333333334,0.970617042115573,False,"[[6865, 335, 0], [822, 6378, 0], [1, 119, 3964]]"
0.0001,0.4,800,800,0.930913222246267,0.9534722222222223,0.8858333333333334,0.970617042115573,False,"[[6865, 335, 0], [822, 6378, 0], [1, 119, 3964]]"
0.0001,0.45,800,800,0.930913222246267,0.9534722222222223,0.8858333333333334,0.970617042115573,False,"[[6865, 335, 0], [822, 6378, 0], [1, 119, 3964]]"
0.0001,0.5,800,800,0.930913222246267,0.9534722222222223,0.8858333333333334,0.970617042115573,False,"[[6865, 335, 0], [822, 6378, 0], [1, 119, 3964]]"
0.0001,0.55,800,800,0.930913222246267,0.9534722222222223,0.8858333333333334,0.970617042115573,False,"[[6865, 335, 0], [822, 6378, 0], [1, 119, 3964]]"
0.0001,0.6,800,800,0.930913222246267,0.9534722222222223,0.8858333333333334,0.970617042115573,False,"[[6865, 335, 0], [822, 6378, 0], [1, 119, 3964]]"
0.0001,0.7,800,800,0.930913222246267,0.9534722222222223,0.8858333333333334,0.970617042115573,False,"[[6865, 335, 0], [822, 6378, 0], [1, 119, 3964]]"
0.0001,0.8,800,800,0.930913222246267,0.9534722222222223,0.8858333333333334,0.970617042115573,False,"[[6865, 335, 0], [822, 6378, 0], [1, 119, 3964]]"
0.0001,0.95,800,800,0.930913222246267,0.9534722222222223,0.8858333333333334,0.970617042115573,False,"[[6865, 335, 0], [822, 6378, 0], [1, 119, 3964]]"
0.0002,0.3,800,800,0.930913222246267,0.9534722222222223,0.8858333333333334,0.970617042115573,False,"[[6865, 335, 0], [822, 6378, 0], [1, 119, 3964]]"
0.0002,0.35,800,800,0.930913222246267,0.9534722222222223,0.8858333333333334,0.970617042115573,False,"[[6865, 335, 0], [822, 6378, 0], [1, 119, 3964]]"
0.0002,0.4,800,800,0.930913222246267,0.9534722222222223,0.8858333333333334,0.970617042115573,False,"[[6865, 335, 0], [822, 6378, 0], [1, 119, 3964]]"
0.0002,0.45,800,800,0.930913222246267,0.9534722222222223,0.8858333333333334,0.970617042115573,False,"[[6865, 335, 0], [822, 6378, 0], [1, 119, 3964]]"
0.0002,0.5,800,800,0.930913222246267,0.9534722222222223,0.8858333333333334,0.970617042115573,False,"[[6865, 335, 0], [822, 6378, 0], [1, 119, 3964]]"
0.0002,0.55,800,800,0.930913222246267,0.9534722222222223,0.8858333333333334,0.970617042115573,False,"[[6865, 335, 0], [822, 6378, 0], [1, 119, 3964]]"
0.0002,0.6,800,800,0.930913222246267,0.9534722222222223,0.8858333333333334,0.970617042115573,False,"[[6865, 335, 0], [822, 6378, 0], [1, 119, 3964]]"
0.0002,0.7,800,800,0.930913222246267,0.9534722222222223,0.8858333333333334,0.970617042115573,False,"[[6865, 335, 0], [822, 6378, 0], [1, 119, 3964]]"
0.0002,0.8,800,800,0.930913222246267,0.9534722222222223,0.8858333333333334,0.970617042115573,False,"[[6865, 335, 0], [822, 6378, 0], [1, 119, 3964]]"
0.0002,0.95,800,800,0.930913222246267,0.9534722222222223,0.8858333333333334,0.970617042115573,False,"[[6865, 335, 0], [822, 6378, 0], [1, 119, 3964]]"
0.0005,0.3,800,800,0.930913222246267,0.9534722222222223,0.8858333333333334,0.970617042115573,False,"[[6865, 335, 0], [822, 6378, 0], [1, 119, 3964]]"
0.0005,0.35,800,800,0.930913222246267,0.9534722222222223,0.8858333333333334,0.970617042115573,False,"[[6865, 335, 0], [822, 6378, 0], [1, 119, 3964]]"
0.0005,0.4,800,800,0.930913222246267,0.9534722222222223,0.8858333333333334,0.970617042115573,False,"[[6865, 335, 0], [822, 6378, 0], [1, 119, 3964]]"
0.0005,0.45,800,800,0.930913222246267,0.9534722222222223,0.8858333333333334,0.970617042115573,False,"[[6865, 335, 0], [822, 6378, 0], [1, 119, 3964]]"
0.0005,0.5,800,800,0.930913222246267,0.9534722222222223,0.8858333333333334,0.970617042115573,False,"[[6865, 335, 0], [822, 6378, 0], [1, 119, 3964]]"
0.0005,0.55,800,800,0.930913222246267,0.9534722222222223,0.8858333333333334,0.970617042115573,False,"[[6865, 335, 0], [822, 6378, 0], [1, 119, 3964]]"
0.0005,0.6,800,800,0.930913222246267,0.9534722222222223,0.8858333333333334,0.970617042115573,False,"[[6865, 335, 0], [822, 6378, 0], [1, 119, 3964]]"
0.0005,0.7,800,800,0.930913222246267,0.9534722222222223,0.8858333333333334,0.970617042115573,False,"[[6865, 335, 0], [822, 6378, 0], [1, 119, 3964]]"
0.0005,0.8,800,800,0.930913222246267,0.9534722222222223,0.8858333333333334,0.970617042115573,False,"[[6865, 335, 0], [822, 6378, 0], [1, 119, 3964]]"
0.0005,0.95,800,800,0.930913222246267,0.9534722222222223,0.8858333333333334,0.970617042115573,False,"[[6865, 335, 0], [822, 6378, 0], [1, 119, 3964]]"
0.001,0.3,800,800,0.930913222246267,0.9534722222222223,0.8858333333333334,0.970617042115573,False,"[[6865, 335, 0], [822, 6378, 0], [1, 119, 3964]]"
0.001,0.35,800,800,0.930913222246267,0.9534722222222223,0.8858333333333334,0.970617042115573,False,"[[6865, 335, 0], [822, 6378, 0], [1, 119, 3964]]"
0.001,0.4,800,800,0.930913222246267,0.9534722222222223,0.8858333333333334,0.970617042115573,False,"[[6865, 335, 0], [822, 6378, 0], [1, 119, 3964]]"
0.001,0.45,800,800,0.930913222246267,0.9534722222222223,0.8858333333333334,0.970617042115573,False,"[[6865, 335, 0], [822, 6378, 0], [1, 119, 3964]]"
0.001,0.5,800,800,0.930913222246267,0.9534722222222223,0.8858333333333334,0.970617042115573,False,"[[6865, 335, 0], [822, 6378, 0], [1, 119, 3964]]"
0.001,0.55,800,800,0.930913222246267,0.9534722222222223,0.8858333333333334,0.970617042115573,False,"[[6865, 335, 0], [822, 6378, 0], [1, 119, 3964]]"
0.001,0.6,800,800,0.930913222246267,0.9534722222222223,0.8858333333333334,0.970617042115573,False,"[[6865, 335, 0], [822, 6378, 0], [1, 119, 3964]]"
0.001,0.7,800,800,0.930913222246267,0.9534722222222223,0.8858333333333334,0.970617042115573,False,"[[6865, 335, 0], [822, 6378, 0], [1, 119, 3964]]"
0.001,0.8,800,800,0.930913222246267,0.9534722222222223,0.8858333333333334,0.970617042115573,False,"[[6865, 335, 0], [822, 6378, 0], [1, 119, 3964]]"
0.001,0.95,800,800,0.930913222246267,0.9534722222222223,0.8858333333333334,0.970617042115573,False,"[[6865, 335, 0], [822, 6378, 0], [1, 119, 3964]]"
0.002,0.3,800,800,0.930913222246267,0.9534722222222223,0.8858333333333334,0.970617042115573,False,"[[6865, 335, 0], [822, 6378, 0], [1, 119, 3964]]"
0.002,0.35,800,800,0.930913222246267,0.9534722222222223,0.8858333333333334,0.970617042115573,False,"[[6865, 335, 0], [822, 6378, 0], [1, 119, 3964]]"
0.002,0.4,800,800,0.930913222246267,0.9534722222222223,0.8858333333333334,0.970617042115573,False,"[[6865, 335, 0], [822, 6378, 0], [1, 119, 3964]]"
0.002,0.45,800,800,0.930913222246267,0.9534722222222223,0.8858333333333334,0.970617042115573,False,"[[6865, 335, 0], [822, 6378, 0], [1, 119, 3964]]"
0.002,0.5,800,800,0.930913222246267,0.9534722222222223,0.8858333333333334,0.970617042115573,False,"[[6865, 335, 0], [822, 6378, 0], [1, 119, 3964]]"
0.002,0.55,800,800,0.930913222246267,0.9534722222222223,0.8858333333333334,0.970617042115573,False,"[[6865, 335, 0], [822, 6378, 0], [1, 119, 3964]]"
0.002,0.6,800,800,0.930913222246267,0.9534722222222223,0.8858333333333334,0.970617042115573,False,"[[6865, 335, 0], [822, 6378, 0], [1, 119, 3964]]"
0.002,0.7,800,800,0.930913222246267,0.9534722222222223,0.8858333333333334,0.970617042115573,False,"[[6865, 335, 0], [822, 6378, 0], [1, 119, 3964]]"
0.002,0.8,800,800,0.930913222246267,0.9534722222222223,0.8858333333333334,0.970617042115573,False,"[[6865, 335, 0], [822, 6378, 0], [1, 119, 3964]]"
0.002,0.95,800,800,0.930913222246267,0.9534722222222223,0.8858333333333334,0.970617042115573,False,"[[6865, 335, 0], [822, 6378, 0], [1, 119, 3964]]"
0.005,0.3,800,800,0.930913222246267,0.9534722222222223,0.8858333333333334,0.970617042115573,False,"[[6865, 335, 0], [822, 6378, 0], [1, 119, 3964]]"
0.005,0.35,800,800,0.930913222246267,0.9534722222222223,0.8858333333333334,0.970617042115573,False,"[[6865, 335, 0], [822, 6378, 0], [1, 119, 3964]]"
0.005,0.4,800,800,0.930913222246267,0.9534722222222223,0.8858333333333334,0.970617042115573,False,"[[6865, 335, 0], [822, 6378, 0], [1, 119, 3964]]"
0.005,0.45,800,800,0.930913222246267,0.9534722222222223,0.8858333333333334,0.970617042115573,False,"[[6865, 335, 0], [822, 6378, 0], [1, 119, 3964]]"
0.005,0.5,800,800,0.930913222246267,0.9534722222222223,0.8858333333333334,0.970617042115573,False,"[[6865, 335, 0], [822, 6378, 0], [1, 119, 3964]]"
0.005,0.55,800,800,0.930913222246267,0.9534722222222223,0.8858333333333334,0.970617042115573,False,"[[6865, 335, 0], [822, 6378, 0], [1, 119, 3964]]"
0.005,0.6,800,800,0.930913222246267,0.9534722222222223,0.8858333333333334,0.970617042115573,False,"[[6865, 335, 0], [822, 6378, 0], [1, 119, 3964]]"
0.005,0.7,800,800,0.930913222246267,0.9534722222222223,0.8858333333333334,0.970617042115573,False,"[[6865, 335, 0], [822, 6378, 0], [1, 119, 3964]]"
0.005,0.8,800,800,0.930913222246267,0.9534722222222223,0.8858333333333334,0.970617042115573,False,"[[6865, 335, 0], [822, 6378, 0], [1, 119, 3964]]"
0.005,0.95,800,800,0.930913222246267,0.9534722222222223,0.8858333333333334,0.970617042115573,False,"[[6865, 335, 0], [822, 6378, 0], [1, 119, 3964]]"
0.01,0.3,800,800,0.930913222246267,0.9534722222222223,0.8858333333333334,0.970617042115573,False,"[[6865, 335, 0], [822, 6378, 0], [1, 119, 3964]]"
0.01,0.35,800,800,0.930913222246267,0.9534722222222223,0.8858333333333334,0.970617042115573,False,"[[6865, 335, 0], [822, 6378, 0], [1, 119, 3964]]"
0.01,0.4,800,800,0.930913222246267,0.9534722222222223,0.8858333333333334,0.970617042115573,False,"[[6865, 335, 0], [822, 6378, 0], [1, 119, 3964]]"
0.01,0.45,800,800,0.930913222246267,0.9534722222222223,0.8858333333333334,0.970617042115573,False,"[[6865, 335, 0], [822, 6378, 0], [1, 119, 3964]]"
0.01,0.5,800,800,0.930913222246267,0.9534722222222223,0.8858333333333334,0.970617042115573,False,"[[6865, 335, 0], [822, 6378, 0], [1, 119, 3964]]"
0.01,0.55,800,800,0.930913222246267,0.9534722222222223,0.8858333333333334,0.970617042115573,False,"[[6865, 335, 0], [822, 6378, 0], [1, 119, 3964]]"
0.01,0.6,800,800,0.930913222246267,0.9534722222222223,0.8858333333333334,0.970617042115573,False,"[[6865, 335, 0], [822, 6378, 0], [1, 119, 3964]]"
0.01,0.7,800,800,0.930913222246267,0.9534722222222223,0.8858333333333334,0.970617042115573,False,"[[6865, 335, 0], [822, 6378, 0], [1, 119, 3964]]"
0.01,0.8,800,800,0.930913222246267,0.9534722222222223,0.8858333333333334,0.970617042115573,False,"[[6865, 335, 0], [822, 6378, 0], [1, 119, 3964]]"
0.01,0.95,800,800,0.930913222246267,0.9534722222222223,0.8858333333333334,0.970617042115573,False,"[[6865, 335, 0], [822, 6378, 0], [1, 119, 3964]]"
0.015,0.3,800,800,0.930913222246267,0.9534722222222223,0.8858333333333334,0.970617042115573,False,"[[6865, 335, 0], [822, 6378, 0], [1, 119, 3964]]"
0.015,0.35,800,800,0.930913222246267,0.9534722222222223,0.8858333333333334,0.970617042115573,False,"[[6865, 335, 0], [822, 6378, 0], [1, 119, 3964]]"
0.015,0.4,800,800,0.930913222246267,0.9534722222222223,0.8858333333333334,0.970617042115573,False,"[[6865, 335, 0], [822, 6378, 0], [1, 119, 3964]]"
0.015,0.45,800,800,0.930913222246267,0.9534722222222223,0.8858333333333334,0.970617042115573,False,"[[6865, 335, 0], [822, 6378, 0], [1, 119, 3964]]"
0.015,0.5,800,800,0.930913222246267,0.9534722222222223,0.8858333333333334,0.970617042115573,False,"[[6865, 335, 0], [822, 6378, 0], [1, 119, 3964]]"
0.015,0.55,800,800,0.930913222246267,0.9534722222222223,0.8858333333333334,0.970617042115573,False,"[[6865, 335, 0], [822, 6378, 0], [1, 119, 3964]]"
0.015,0.6,800,800,0.930913222246267,0.9534722222222223,0.8858333333333334,0.970617042115573,False,"[[6865, 335, 0], [822, 6378, 0], [1, 119, 3964]]"
0.015,0.7,800,800,0.930913222246267,0.9534722222222223,0.8858333333333334,0.970617042115573,False,"[[6865, 335, 0], [822, 6378, 0], [1, 119, 3964]]"
0.015,0.8,800,800,0.930913222246267,0.9534722222222223,0.8858333333333334,0.970617042115573,False,"[[6865, 335, 0], [822, 6378, 0], [1, 119, 3964]]"
0.015,0.95,800,800,0.930913222246267,0.9534722222222223,0.8858333333333334,0.970617042115573,False,"[[6865, 335, 0], [822, 6378, 0], [1, 119, 3964]]"
0.02,0.3,800,800,0.930913222246267,0.9534722222222223,0.8858333333333334,0.970617042115573,False,"[[6865, 335, 0], [822, 6378, 0], [1, 119, 3964]]"
0.02,0.35,800,800,0.930913222246267,0.9534722222222223,0.8858333333333334,0.970617042115573,False,"[[6865, 335, 0], [822, 6378, 0], [1, 119, 3964]]"
0.02,0.4,800,800,0.930913222246267,0.9534722222222223,0.8858333333333334,0.970617042115573,False,"[[6865, 335, 0], [822, 6378, 0], [1, 119, 3964]]"
0.02,0.45,800,800,0.930913222246267,0.9534722222222223,0.8858333333333334,0.970617042115573,False,"[[6865, 335, 0], [822, 6378, 0], [1, 119, 3964]]"
0.02,0.5,800,800,0.930913222246267,0.9534722222222223,0.8858333333333334,0.970617042115573,False,"[[6865, 335, 0], [822, 6378, 0], [1, 119, 3964]]"
0.02,0.55,800,800,0.930913222246267,0.9534722222222223,0.8858333333333334,0.970617042115573,False,"[[6865, 335, 0], [822, 6378, 0], [1, 119, 3964]]"
0.02,0.6,800,800,0.930913222246267,0.9534722222222223,0.8858333333333334,0.970617042115573,False,"[[6865, 335, 0], [822, 6378, 0], [1, 119, 3964]]"
0.02,0.7,800,800,0.930913222246267,0.9534722222222223,0.8858333333333334,0.970617042115573,False,"[[6865, 335, 0], [822, 6378, 0], [1, 119, 3964]]"
0.02,0.8,800,800,0.930913222246267,0.9534722222222223,0.8858333333333334,0.970617042115573,False,"[[6865, 335, 0], [822, 6378, 0], [1, 119, 3964]]"
0.02,0.95,800,800,0.930913222246267,0.9534722222222223,0.8858333333333334,0.970617042115573,False,"[[6865, 335, 0], [822, 6378, 0], [1, 119, 3964]]"
0.0,0.3,700,700,0.9301017095866696,0.9551388888888889,0.8820833333333333,0.970617042115573,False,"[[6877, 323, 0], [849, 6351, 0], [1, 119, 3964]]"
0.0,0.35,700,700,0.9301017095866696,0.9551388888888889,0.8820833333333333,0.970617042115573,False,"[[6877, 323, 0], [849, 6351, 0], [1, 119, 3964]]"
0.0,0.4,700,700,0.9301017095866696,0.9551388888888889,0.8820833333333333,0.970617042115573,False,"[[6877, 323, 0], [849, 6351, 0], [1, 119, 3964]]"
0.0,0.45,700,700,0.9301017095866696,0.9551388888888889,0.8820833333333333,0.970617042115573,False,"[[6877, 323, 0], [849, 6351, 0], [1, 119, 3964]]"
0.0,0.5,700,700,0.9301017095866696,0.9551388888888889,0.8820833333333333,0.970617042115573,False,"[[6877, 323, 0], [849, 6351, 0], [1, 119, 3964]]"
0.0,0.55,700,700,0.9301017095866696,0.9551388888888889,0.8820833333333333,0.970617042115573,False,"[[6877, 323, 0], [849, 6351, 0], [1, 119, 3964]]"
0.0,0.6,700,700,0.9301017095866696,0.9551388888888889,0.8820833333333333,0.970617042115573,False,"[[6877, 323, 0], [849, 6351, 0], [1, 119, 3964]]"
0.0,0.7,700,700,0.9301017095866696,0.9551388888888889,0.8820833333333333,0.970617042115573,False,"[[6877, 323, 0], [849, 6351, 0], [1, 119, 3964]]"
0.0,0.8,700,700,0.9301017095866696,0.9551388888888889,0.8820833333333333,0.970617042115573,False,"[[6877, 323, 0], [849, 6351, 0], [1, 119, 3964]]"
0.0,0.95,700,700,0.9301017095866696,0.9551388888888889,0.8820833333333333,0.970617042115573,False,"[[6877, 323, 0], [849, 6351, 0], [1, 119, 3964]]"
2e-05,0.3,700,700,0.9301017095866696,0.9551388888888889,0.8820833333333333,0.970617042115573,False,"[[6877, 323, 0], [849, 6351, 0], [1, 119, 3964]]"
2e-05,0.35,700,700,0.9301017095866696,0.9551388888888889,0.8820833333333333,0.970617042115573,False,"[[6877, 323, 0], [849, 6351, 0], [1, 119, 3964]]"
2e-05,0.4,700,700,0.9301017095866696,0.9551388888888889,0.8820833333333333,0.970617042115573,False,"[[6877, 323, 0], [849, 6351, 0], [1, 119, 3964]]"
2e-05,0.45,700,700,0.9301017095866696,0.9551388888888889,0.8820833333333333,0.970617042115573,False,"[[6877, 323, 0], [849, 6351, 0], [1, 119, 3964]]"
2e-05,0.5,700,700,0.9301017095866696,0.9551388888888889,0.8820833333333333,0.970617042115573,False,"[[6877, 323, 0], [849, 6351, 0], [1, 119, 3964]]"
2e-05,0.55,700,700,0.9301017095866696,0.9551388888888889,0.8820833333333333,0.970617042115573,False,"[[6877, 323, 0], [849, 6351, 0], [1, 119, 3964]]"
2e-05,0.6,700,700,0.9301017095866696,0.9551388888888889,0.8820833333333333,0.970617042115573,False,"[[6877, 323, 0], [849, 6351, 0], [1, 119, 3964]]"
2e-05,0.7,700,700,0.9301017095866696,0.9551388888888889,0.8820833333333333,0.970617042115573,False,"[[6877, 323, 0], [849, 6351, 0], [1, 119, 3964]]"
2e-05,0.8,700,700,0.9301017095866696,0.9551388888888889,0.8820833333333333,0.970617042115573,False,"[[6877, 323, 0], [849, 6351, 0], [1, 119, 3964]]"
2e-05,0.95,700,700,0.9301017095866696,0.9551388888888889,0.8820833333333333,0.970617042115573,False,"[[6877, 323, 0], [849, 6351, 0], [1, 119, 3964]]"
5e-05,0.3,700,700,0.9301017095866696,0.9551388888888889,0.8820833333333333,0.970617042115573,False,"[[6877, 323, 0], [849, 6351, 0], [1, 119, 3964]]"
5e-05,0.35,700,700,0.9301017095866696,0.9551388888888889,0.8820833333333333,0.970617042115573,False,"[[6877, 323, 0], [849, 6351, 0], [1, 119, 3964]]"
5e-05,0.4,700,700,0.9301017095866696,0.9551388888888889,0.8820833333333333,0.970617042115573,False,"[[6877, 323, 0], [849, 6351, 0], [1, 119, 3964]]"
5e-05,0.45,700,700,0.9301017095866696,0.9551388888888889,0.8820833333333333,0.970617042115573,False,"[[6877, 323, 0], [849, 6351, 0], [1, 119, 3964]]"
5e-05,0.5,700,700,0.9301017095866696,0.9551388888888889,0.8820833333333333,0.970617042115573,False,"[[6877, 323, 0], [849, 6351, 0], [1, 119, 3964]]"
5e-05,0.55,700,700,0.9301017095866696,0.9551388888888889,0.8820833333333333,0.970617042115573,False,"[[6877, 323, 0], [849, 6351, 0], [1, 119, 3964]]"
5e-05,0.6,700,700,0.9301017095866696,0.9551388888888889,0.8820833333333333,0.970617042115573,False,"[[6877, 323, 0], [849, 6351, 0], [1, 119, 3964]]"
5e-05,0.7,700,700,0.9301017095866696,0.9551388888888889,0.8820833333333333,0.970617042115573,False,"[[6877, 323, 0], [849, 6351, 0], [1, 119, 3964]]"
5e-05,0.8,700,700,0.9301017095866696,0.9551388888888889,0.8820833333333333,0.970617042115573,False,"[[6877, 323, 0], [849, 6351, 0], [1, 119, 3964]]"
5e-05,0.95,700,700,0.9301017095866696,0.9551388888888889,0.8820833333333333,0.970617042115573,False,"[[6877, 323, 0], [849, 6351, 0], [1, 119, 3964]]"
0.0001,0.3,700,700,0.9301017095866696,0.9551388888888889,0.8820833333333333,0.970617042115573,False,"[[6877, 323, 0], [849, 6351, 0], [1, 119, 3964]]"
0.0001,0.35,700,700,0.9301017095866696,0.9551388888888889,0.8820833333333333,0.970617042115573,False,"[[6877, 323, 0], [849, 6351, 0], [1, 119, 3964]]"
0.0001,0.4,700,700,0.9301017095866696,0.9551388888888889,0.8820833333333333,0.970617042115573,False,"[[6877, 323, 0], [849, 6351, 0], [1, 119, 3964]]"
0.0001,0.45,700,700,0.9301017095866696,0.9551388888888889,0.8820833333333333,0.970617042115573,False,"[[6877, 323, 0], [849, 6351, 0], [1, 119, 3964]]"
0.0001,0.5,700,700,0.9301017095866696,0.9551388888888889,0.8820833333333333,0.970617042115573,False,"[[6877, 323, 0], [849, 6351, 0], [1, 119, 3964]]"
0.0001,0.55,700,700,0.9301017095866696,0.9551388888888889,0.8820833333333333,0.970617042115573,False,"[[6877, 323, 0], [849, 6351, 0], [1, 119, 3964]]"
0.0001,0.6,700,700,0.9301017095866696,0.9551388888888889,0.8820833333333333,0.970617042115573,False,"[[6877, 323, 0], [849, 6351, 0], [1, 119, 3964]]"
0.0001,0.7,700,700,0.9301017095866696,0.9551388888888889,0.8820833333333333,0.970617042115573,False,"[[6877, 323, 0], [849, 6351, 0], [1, 119, 3964]]"
0.0001,0.8,700,700,0.9301017095866696,0.9551388888888889,0.8820833333333333,0.970617042115573,False,"[[6877, 323, 0], [849, 6351, 0], [1, 119, 3964]]"
0.0001,0.95,700,700,0.9301017095866696,0.9551388888888889,0.8820833333333333,0.970617042115573,False,"[[6877, 323, 0], [849, 6351, 0], [1, 119, 3964]]"
0.0002,0.3,700,700,0.9301017095866696,0.9551388888888889,0.8820833333333333,0.970617042115573,False,"[[6877, 323, 0], [849, 6351, 0], [1, 119, 3964]]"
0.0002,0.35,700,700,0.9301017095866696,0.9551388888888889,0.8820833333333333,0.970617042115573,False,"[[6877, 323, 0], [849, 6351, 0], [1, 119, 3964]]"
0.0002,0.4,700,700,0.9301017095866696,0.9551388888888889,0.8820833333333333,0.970617042115573,False,"[[6877, 323, 0], [849, 6351, 0], [1, 119, 3964]]"
0.0002,0.45,700,700,0.9301017095866696,0.9551388888888889,0.8820833333333333,0.970617042115573,False,"[[6877, 323, 0], [849, 6351, 0], [1, 119, 3964]]"
0.0002,0.5,700,700,0.9301017095866696,0.9551388888888889,0.8820833333333333,0.970617042115573,False,"[[6877, 323, 0], [849, 6351, 0], [1, 119, 3964]]"
0.0002,0.55,700,700,0.9301017095866696,0.9551388888888889,0.8820833333333333,0.970617042115573,False,"[[6877, 323, 0], [849, 6351, 0], [1, 119, 3964]]"
0.0002,0.6,700,700,0.9301017095866696,0.9551388888888889,0.8820833333333333,0.970617042115573,False,"[[6877, 323, 0], [849, 6351, 0], [1, 119, 3964]]"
0.0002,0.7,700,700,0.9301017095866696,0.9551388888888889,0.8820833333333333,0.970617042115573,False,"[[6877, 323, 0], [849, 6351, 0], [1, 119, 3964]]"
0.0002,0.8,700,700,0.9301017095866696,0.9551388888888889,0.8820833333333333,0.970617042115573,False,"[[6877, 323, 0], [849, 6351, 0], [1, 119, 3964]]"
0.0002,0.95,700,700,0.9301017095866696,0.9551388888888889,0.8820833333333333,0.970617042115573,False,"[[6877, 323, 0], [849, 6351, 0], [1, 119, 3964]]"
0.0005,0.3,700,700,0.9301017095866696,0.9551388888888889,0.8820833333333333,0.970617042115573,False,"[[6877, 323, 0], [849, 6351, 0], [1, 119, 3964]]"
0.0005,0.35,700,700,0.9301017095866696,0.9551388888888889,0.8820833333333333,0.970617042115573,False,"[[6877, 323, 0], [849, 6351, 0], [1, 119, 3964]]"
0.0005,0.4,700,700,0.9301017095866696,0.9551388888888889,0.8820833333333333,0.970617042115573,False,"[[6877, 323, 0], [849, 6351, 0], [1, 119, 3964]]"
0.0005,0.45,700,700,0.9301017095866696,0.9551388888888889,0.8820833333333333,0.970617042115573,False,"[[6877, 323, 0], [849, 6351, 0], [1, 119, 3964]]"
0.0005,0.5,700,700,0.9301017095866696,0.9551388888888889,0.8820833333333333,0.970617042115573,False,"[[6877, 323, 0], [849, 6351, 0], [1, 119, 3964]]"
0.0005,0.55,700,700,0.9301017095866696,0.9551388888888889,0.8820833333333333,0.970617042115573,False,"[[6877, 323, 0], [849, 6351, 0], [1, 119, 3964]]"
0.0005,0.6,700,700,0.9301017095866696,0.9551388888888889,0.8820833333333333,0.970617042115573,False,"[[6877, 323, 0], [849, 6351, 0], [1, 119, 3964]]"
0.0005,0.7,700,700,0.9301017095866696,0.9551388888888889,0.8820833333333333,0.970617042115573,False,"[[6877, 323, 0], [849, 6351, 0], [1, 119, 3964]]"
0.0005,0.8,700,700,0.9301017095866696,0.9551388888888889,0.8820833333333333,0.970617042115573,False,"[[6877, 323, 0], [849, 6351, 0], [1, 119, 3964]]"
0.0005,0.95,700,700,0.9301017095866696,0.9551388888888889,0.8820833333333333,0.970617042115573,False,"[[6877, 323, 0], [849, 6351, 0], [1, 119, 3964]]"
0.001,0.3,700,700,0.9301017095866696,0.9551388888888889,0.8820833333333333,0.970617042115573,False,"[[6877, 323, 0], [849, 6351, 0], [1, 119, 3964]]"
0.001,0.35,700,700,0.9301017095866696,0.9551388888888889,0.8820833333333333,0.970617042115573,False,"[[6877, 323, 0], [849, 6351, 0], [1, 119, 3964]]"
0.001,0.4,700,700,0.9301017095866696,0.9551388888888889,0.8820833333333333,0.970617042115573,False,"[[6877, 323, 0], [849, 6351, 0], [1, 119, 3964]]"
0.001,0.45,700,700,0.9301017095866696,0.9551388888888889,0.8820833333333333,0.970617042115573,False,"[[6877, 323, 0], [849, 6351, 0], [1, 119, 3964]]"
0.001,0.5,700,700,0.9301017095866696,0.9551388888888889,0.8820833333333333,0.970617042115573,False,"[[6877, 323, 0], [849, 6351, 0], [1, 119, 3964]]"
0.001,0.55,700,700,0.9301017095866696,0.9551388888888889,0.8820833333333333,0.970617042115573,False,"[[6877, 323, 0], [849, 6351, 0], [1, 119, 3964]]"
0.001,0.6,700,700,0.9301017095866696,0.9551388888888889,0.8820833333333333,0.970617042115573,False,"[[6877, 323, 0], [849, 6351, 0], [1, 119, 3964]]"
0.001,0.7,700,700,0.9301017095866696,0.9551388888888889,0.8820833333333333,0.970617042115573,False,"[[6877, 323, 0], [849, 6351, 0], [1, 119, 3964]]"
0.001,0.8,700,700,0.9301017095866696,0.9551388888888889,0.8820833333333333,0.970617042115573,False,"[[6877, 323, 0], [849, 6351, 0], [1, 119, 3964]]"
0.001,0.95,700,700,0.9301017095866696,0.9551388888888889,0.8820833333333333,0.970617042115573,False,"[[6877, 323, 0], [849, 6351, 0], [1, 119, 3964]]"
0.002,0.3,700,700,0.9301017095866696,0.9551388888888889,0.8820833333333333,0.970617042115573,False,"[[6877, 323, 0], [849, 6351, 0], [1, 119, 3964]]"
0.002,0.35,700,700,0.9301017095866696,0.9551388888888889,0.8820833333333333,0.970617042115573,False,"[[6877, 323, 0], [849, 6351, 0], [1, 119, 3964]]"
0.002,0.4,700,700,0.9301017095866696,0.9551388888888889,0.8820833333333333,0.970617042115573,False,"[[6877, 323, 0], [849, 6351, 0], [1, 119, 3964]]"
0.002,0.45,700,700,0.9301017095866696,0.9551388888888889,0.8820833333333333,0.970617042115573,False,"[[6877, 323, 0], [849, 6351, 0], [1, 119, 3964]]"
0.002,0.5,700,700,0.9301017095866696,0.9551388888888889,0.8820833333333333,0.970617042115573,False,"[[6877, 323, 0], [849, 6351, 0], [1, 119, 3964]]"
0.002,0.55,700,700,0.9301017095866696,0.9551388888888889,0.8820833333333333,0.970617042115573,False,"[[6877, 323, 0], [849, 6351, 0], [1, 119, 3964]]"
0.002,0.6,700,700,0.9301017095866696,0.9551388888888889,0.8820833333333333,0.970617042115573,False,"[[6877, 323, 0], [849, 6351, 0], [1, 119, 3964]]"
0.002,0.7,700,700,0.9301017095866696,0.9551388888888889,0.8820833333333333,0.970617042115573,False,"[[6877, 323, 0], [849, 6351, 0], [1, 119, 3964]]"
0.002,0.8,700,700,0.9301017095866696,0.9551388888888889,0.8820833333333333,0.970617042115573,False,"[[6877, 323, 0], [849, 6351, 0], [1, 119, 3964]]"
0.002,0.95,700,700,0.9301017095866696,0.9551388888888889,0.8820833333333333,0.970617042115573,False,"[[6877, 323, 0], [849, 6351, 0], [1, 119, 3964]]"
0.005,0.3,700,700,0.9301017095866696,0.9551388888888889,0.8820833333333333,0.970617042115573,False,"[[6877, 323, 0], [849, 6351, 0], [1, 119, 3964]]"
0.005,0.35,700,700,0.9301017095866696,0.9551388888888889,0.8820833333333333,0.970617042115573,False,"[[6877, 323, 0], [849, 6351, 0], [1, 119, 3964]]"
0.005,0.4,700,700,0.9301017095866696,0.9551388888888889,0.8820833333333333,0.970617042115573,False,"[[6877, 323, 0], [849, 6351, 0], [1, 119, 3964]]"
0.005,0.45,700,700,0.9301017095866696,0.9551388888888889,0.8820833333333333,0.970617042115573,False,"[[6877, 323, 0], [849, 6351, 0], [1, 119, 3964]]"
0.005,0.5,700,700,0.9301017095866696,0.9551388888888889,0.8820833333333333,0.970617042115573,False,"[[6877, 323, 0], [849, 6351, 0], [1, 119, 3964]]"
0.005,0.55,700,700,0.9301017095866696,0.9551388888888889,0.8820833333333333,0.970617042115573,False,"[[6877, 323, 0], [849, 6351, 0], [1, 119, 3964]]"
0.005,0.6,700,700,0.9301017095866696,0.9551388888888889,0.8820833333333333,0.970617042115573,False,"[[6877, 323, 0], [849, 6351, 0], [1, 119, 3964]]"
0.005,0.7,700,700,0.9301017095866696,0.9551388888888889,0.8820833333333333,0.970617042115573,False,"[[6877, 323, 0], [849, 6351, 0], [1, 119, 3964]]"
0.005,0.8,700,700,0.9301017095866696,0.9551388888888889,0.8820833333333333,0.970617042115573,False,"[[6877, 323, 0], [849, 6351, 0], [1, 119, 3964]]"
0.005,0.95,700,700,0.9301017095866696,0.9551388888888889,0.8820833333333333,0.970617042115573,False,"[[6877, 323, 0], [849, 6351, 0], [1, 119, 3964]]"
0.01,0.3,700,700,0.9301017095866696,0.9551388888888889,0.8820833333333333,0.970617042115573,False,"[[6877, 323, 0], [849, 6351, 0], [1, 119, 3964]]"
0.01,0.35,700,700,0.9301017095866696,0.9551388888888889,0.8820833333333333,0.970617042115573,False,"[[6877, 323, 0], [849, 6351, 0], [1, 119, 3964]]"
0.01,0.4,700,700,0.9301017095866696,0.9551388888888889,0.8820833333333333,0.970617042115573,False,"[[6877, 323, 0], [849, 6351, 0], [1, 119, 3964]]"
0.01,0.45,700,700,0.9301017095866696,0.9551388888888889,0.8820833333333333,0.970617042115573,False,"[[6877, 323, 0], [849, 6351, 0], [1, 119, 3964]]"
0.01,0.5,700,700,0.9301017095866696,0.9551388888888889,0.8820833333333333,0.970617042115573,False,"[[6877, 323, 0], [849, 6351, 0], [1, 119, 3964]]"
0.01,0.55,700,700,0.9301017095866696,0.9551388888888889,0.8820833333333333,0.970617042115573,False,"[[6877, 323, 0], [849, 6351, 0], [1, 119, 3964]]"
0.01,0.6,700,700,0.9301017095866696,0.9551388888888889,0.8820833333333333,0.970617042115573,False,"[[6877, 323, 0], [849, 6351, 0], [1, 119, 3964]]"
0.01,0.7,700,700,0.9301017095866696,0.9551388888888889,0.8820833333333333,0.970617042115573,False,"[[6877, 323, 0], [849, 6351, 0], [1, 119, 3964]]"
0.01,0.8,700,700,0.9301017095866696,0.9551388888888889,0.8820833333333333,0.970617042115573,False,"[[6877, 323, 0], [849, 6351, 0], [1, 119, 3964]]"
0.01,0.95,700,700,0.9301017095866696,0.9551388888888889,0.8820833333333333,0.970617042115573,False,"[[6877, 323, 0], [849, 6351, 0], [1, 119, 3964]]"
0.015,0.3,700,700,0.9301017095866696,0.9551388888888889,0.8820833333333333,0.970617042115573,False,"[[6877, 323, 0], [849, 6351, 0], [1, 119, 3964]]"
0.015,0.35,700,700,0.9301017095866696,0.9551388888888889,0.8820833333333333,0.970617042115573,False,"[[6877, 323, 0], [849, 6351, 0], [1, 119, 3964]]"
0.015,0.4,700,700,0.9301017095866696,0.9551388888888889,0.8820833333333333,0.970617042115573,False,"[[6877, 323, 0], [849, 6351, 0], [1, 119, 3964]]"
0.015,0.45,700,700,0.9301017095866696,0.9551388888888889,0.8820833333333333,0.970617042115573,False,"[[6877, 323, 0], [849, 6351, 0], [1, 119, 3964]]"
0.015,0.5,700,700,0.9301017095866696,0.9551388888888889,0.8820833333333333,0.970617042115573,False,"[[6877, 323, 0], [849, 6351, 0], [1, 119, 3964]]"
0.015,0.55,700,700,0.9301017095866696,0.9551388888888889,0.8820833333333333,0.970617042115573,False,"[[6877, 323, 0], [849, 6351, 0], [1, 119, 3964]]"
0.015,0.6,700,700,0.9301017095866696,0.9551388888888889,0.8820833333333333,0.970617042115573,False,"[[6877, 323, 0], [849, 6351, 0], [1, 119, 3964]]"
0.015,0.7,700,700,0.9301017095866696,0.9551388888888889,0.8820833333333333,0.970617042115573,False,"[[6877, 323, 0], [849, 6351, 0], [1, 119, 3964]]"
0.015,0.8,700,700,0.9301017095866696,0.9551388888888889,0.8820833333333333,0.970617042115573,False,"[[6877, 323, 0], [849, 6351, 0], [1, 119, 3964]]"
0.015,0.95,700,700,0.9301017095866696,0.9551388888888889,0.8820833333333333,0.970617042115573,False,"[[6877, 323, 0], [849, 6351, 0], [1, 119, 3964]]"
0.02,0.3,700,700,0.9301017095866696,0.9551388888888889,0.8820833333333333,0.970617042115573,False,"[[6877, 323, 0], [849, 6351, 0], [1, 119, 3964]]"
0.02,0.35,700,700,0.9301017095866696,0.9551388888888889,0.8820833333333333,0.970617042115573,False,"[[6877, 323, 0], [849, 6351, 0], [1, 119, 3964]]"
0.02,0.4,700,700,0.9301017095866696,0.9551388888888889,0.8820833333333333,0.970617042115573,False,"[[6877, 323, 0], [849, 6351, 0], [1, 119, 3964]]"
0.02,0.45,700,700,0.9301017095866696,0.9551388888888889,0.8820833333333333,0.970617042115573,False,"[[6877, 323, 0], [849, 6351, 0], [1, 119, 3964]]"
0.02,0.5,700,700,0.9301017095866696,0.9551388888888889,0.8820833333333333,0.970617042115573,False,"[[6877, 323, 0], [849, 6351, 0], [1, 119, 3964]]"
0.02,0.55,700,700,0.9301017095866696,0.9551388888888889,0.8820833333333333,0.970617042115573,False,"[[6877, 323, 0], [849, 6351, 0], [1, 119, 3964]]"
0.02,0.6,700,700,0.9301017095866696,0.9551388888888889,0.8820833333333333,0.970617042115573,False,"[[6877, 323, 0], [849, 6351, 0], [1, 119, 3964]]"
0.02,0.7,700,700,0.9301017095866696,0.9551388888888889,0.8820833333333333,0.970617042115573,False,"[[6877, 323, 0], [849, 6351, 0], [1, 119, 3964]]"
0.02,0.8,700,700,0.9301017095866696,0.9551388888888889,0.8820833333333333,0.970617042115573,False,"[[6877, 323, 0], [849, 6351, 0], [1, 119, 3964]]"
0.02,0.95,700,700,0.9301017095866696,0.9551388888888889,0.8820833333333333,0.970617042115573,False,"[[6877, 323, 0], [849, 6351, 0], [1, 119, 3964]]"
0.03,0.3,700,700,0.9301017095866696,0.9551388888888889,0.8820833333333333,0.970617042115573,False,"[[6877, 323, 0], [849, 6351, 0], [1, 119, 3964]]"
0.03,0.35,700,700,0.9301017095866696,0.9551388888888889,0.8820833333333333,0.970617042115573,False,"[[6877, 323, 0], [849, 6351, 0], [1, 119, 3964]]"
0.03,0.4,700,700,0.9301017095866696,0.9551388888888889,0.8820833333333333,0.970617042115573,False,"[[6877, 323, 0], [849, 6351, 0], [1, 119, 3964]]"
0.03,0.45,700,700,0.9301017095866696,0.9551388888888889,0.8820833333333333,0.970617042115573,False,"[[6877, 323, 0], [849, 6351, 0], [1, 119, 3964]]"
0.03,0.5,700,700,0.9301017095866696,0.9551388888888889,0.8820833333333333,0.970617042115573,False,"[[6877, 323, 0], [849, 6351, 0], [1, 119, 3964]]"
0.03,0.55,700,700,0.9301017095866696,0.9551388888888889,0.8820833333333333,0.970617042115573,False,"[[6877, 323, 0], [849, 6351, 0], [1, 119, 3964]]"
0.03,0.6,700,700,0.9301017095866696,0.9551388888888889,0.8820833333333333,0.970617042115573,False,"[[6877, 323, 0], [849, 6351, 0], [1, 119, 3964]]"
0.03,0.7,700,700,0.9301017095866696,0.9551388888888889,0.8820833333333333,0.970617042115573,False,"[[6877, 323, 0], [849, 6351, 0], [1, 119, 3964]]"
0.03,0.8,700,700,0.9301017095866696,0.9551388888888889,0.8820833333333333,0.970617042115573,False,"[[6877, 323, 0], [849, 6351, 0], [1, 119, 3964]]"
0.03,0.95,700,700,0.9301017095866696,0.9551388888888889,0.8820833333333333,0.970617042115573,False,"[[6877, 323, 0], [849, 6351, 0], [1, 119, 3964]]"
0.03,0.3,all,707,0.9300476087426964,0.955,0.8820833333333333,0.970617042115573,False,"[[6876, 324, 0], [849, 6351, 0], [1, 119, 3964]]"
0.03,0.3,800,707,0.9300476087426964,0.955,0.8820833333333333,0.970617042115573,False,"[[6876, 324, 0], [849, 6351, 0], [1, 119, 3964]]"
0.03,0.3,900,707,0.9300476087426964,0.955,0.8820833333333333,0.970617042115573,False,"[[6876, 324, 0], [849, 6351, 0], [1, 119, 3964]]"
0.03,0.3,1000,707,0.9300476087426964,0.955,0.8820833333333333,0.970617042115573,False,"[[6876, 324, 0], [849, 6351, 0], [1, 119, 3964]]"
0.03,0.3,1200,707,0.9300476087426964,0.955,0.8820833333333333,0.970617042115573,False,"[[6876, 324, 0], [849, 6351, 0], [1, 119, 3964]]"
0.03,0.35,all,707,0.9300476087426964,0.955,0.8820833333333333,0.970617042115573,False,"[[6876, 324, 0], [849, 6351, 0], [1, 119, 3964]]"
0.03,0.35,800,707,0.9300476087426964,0.955,0.8820833333333333,0.970617042115573,False,"[[6876, 324, 0], [849, 6351, 0], [1, 119, 3964]]"
0.03,0.35,900,707,0.9300476087426964,0.955,0.8820833333333333,0.970617042115573,False,"[[6876, 324, 0], [849, 6351, 0], [1, 119, 3964]]"
0.03,0.35,1000,707,0.9300476087426964,0.955,0.8820833333333333,0.970617042115573,False,"[[6876, 324, 0], [849, 6351, 0], [1, 119, 3964]]"
0.03,0.35,1200,707,0.9300476087426964,0.955,0.8820833333333333,0.970617042115573,False,"[[6876, 324, 0], [849, 6351, 0], [1, 119, 3964]]"
0.03,0.4,all,707,0.9300476087426964,0.955,0.8820833333333333,0.970617042115573,False,"[[6876, 324, 0], [849, 6351, 0], [1, 119, 3964]]"
0.03,0.4,800,707,0.9300476087426964,0.955,0.8820833333333333,0.970617042115573,False,"[[6876, 324, 0], [849, 6351, 0], [1, 119, 3964]]"
0.03,0.4,900,707,0.9300476087426964,0.955,0.8820833333333333,0.970617042115573,False,"[[6876, 324, 0], [849, 6351, 0], [1, 119, 3964]]"
0.03,0.4,1000,707,0.9300476087426964,0.955,0.8820833333333333,0.970617042115573,False,"[[6876, 324, 0], [849, 6351, 0], [1, 119, 3964]]"
0.03,0.4,1200,707,0.9300476087426964,0.955,0.8820833333333333,0.970617042115573,False,"[[6876, 324, 0], [849, 6351, 0], [1, 119, 3964]]"
0.03,0.45,all,707,0.9300476087426964,0.955,0.8820833333333333,0.970617042115573,False,"[[6876, 324, 0], [849, 6351, 0], [1, 119, 3964]]"
0.03,0.45,800,707,0.9300476087426964,0.955,0.8820833333333333,0.970617042115573,False,"[[6876, 324, 0], [849, 6351, 0], [1, 119, 3964]]"
0.03,0.45,900,707,0.9300476087426964,0.955,0.8820833333333333,0.970617042115573,False,"[[6876, 324, 0], [849, 6351, 0], [1, 119, 3964]]"
0.03,0.45,1000,707,0.9300476087426964,0.955,0.8820833333333333,0.970617042115573,False,"[[6876, 324, 0], [849, 6351, 0], [1, 119, 3964]]"
0.03,0.45,1200,707,0.9300476087426964,0.955,0.8820833333333333,0.970617042115573,False,"[[6876, 324, 0], [849, 6351, 0], [1, 119, 3964]]"
0.03,0.5,all,707,0.9300476087426964,0.955,0.8820833333333333,0.970617042115573,False,"[[6876, 324, 0], [849, 6351, 0], [1, 119, 3964]]"
0.03,0.5,800,707,0.9300476087426964,0.955,0.8820833333333333,0.970617042115573,False,"[[6876, 324, 0], [849, 6351, 0], [1, 119, 3964]]"
0.03,0.5,900,707,0.9300476087426964,0.955,0.8820833333333333,0.970617042115573,False,"[[6876, 324, 0], [849, 6351, 0], [1, 119, 3964]]"
0.03,0.5,1000,707,0.9300476087426964,0.955,0.8820833333333333,0.970617042115573,False,"[[6876, 324, 0], [849, 6351, 0], [1, 119, 3964]]"
0.03,0.5,1200,707,0.9300476087426964,0.955,0.8820833333333333,0.970617042115573,False,"[[6876, 324, 0], [849, 6351, 0], [1, 119, 3964]]"
0.03,0.55,all,707,0.9300476087426964,0.955,0.8820833333333333,0.970617042115573,False,"[[6876, 324, 0], [849, 6351, 0], [1, 119, 3964]]"
0.03,0.55,800,707,0.9300476087426964,0.955,0.8820833333333333,0.970617042115573,False,"[[6876, 324, 0], [849, 6351, 0], [1, 119, 3964]]"
0.03,0.55,900,707,0.9300476087426964,0.955,0.8820833333333333,0.970617042115573,False,"[[6876, 324, 0], [849, 6351, 0], [1, 119, 3964]]"
0.03,0.55,1000,707,0.9300476087426964,0.955,0.8820833333333333,0.970617042115573,False,"[[6876, 324, 0], [849, 6351, 0], [1, 119, 3964]]"
0.03,0.55,1200,707,0.9300476087426964,0.955,0.8820833333333333,0.970617042115573,False,"[[6876, 324, 0], [849, 6351, 0], [1, 119, 3964]]"
0.03,0.6,all,707,0.9300476087426964,0.955,0.8820833333333333,0.970617042115573,False,"[[6876, 324, 0], [849, 6351, 0], [1, 119, 3964]]"
0.03,0.6,800,707,0.9300476087426964,0.955,0.8820833333333333,0.970617042115573,False,"[[6876, 324, 0], [849, 6351, 0], [1, 119, 3964]]"
0.03,0.6,900,707,0.9300476087426964,0.955,0.8820833333333333,0.970617042115573,False,"[[6876, 324, 0], [849, 6351, 0], [1, 119, 3964]]"
0.03,0.6,1000,707,0.9300476087426964,0.955,0.8820833333333333,0.970617042115573,False,"[[6876, 324, 0], [849, 6351, 0], [1, 119, 3964]]"
0.03,0.6,1200,707,0.9300476087426964,0.955,0.8820833333333333,0.970617042115573,False,"[[6876, 324, 0], [849, 6351, 0], [1, 119, 3964]]"
0.03,0.7,all,707,0.9300476087426964,0.955,0.8820833333333333,0.970617042115573,False,"[[6876, 324, 0], [849, 6351, 0], [1, 119, 3964]]"
0.03,0.7,800,707,0.9300476087426964,0.955,0.8820833333333333,0.970617042115573,False,"[[6876, 324, 0], [849, 6351, 0], [1, 119, 3964]]"
0.03,0.7,900,707,0.9300476087426964,0.955,0.8820833333333333,0.970617042115573,False,"[[6876, 324, 0], [849, 6351, 0], [1, 119, 3964]]"
0.03,0.7,1000,707,0.9300476087426964,0.955,0.8820833333333333,0.970617042115573,False,"[[6876, 324, 0], [849, 6351, 0], [1, 119, 3964]]"
0.03,0.7,1200,707,0.9300476087426964,0.955,0.8820833333333333,0.970617042115573,False,"[[6876, 324, 0], [849, 6351, 0], [1, 119, 3964]]"
0.03,0.8,all,707,0.9300476087426964,0.955,0.8820833333333333,0.970617042115573,False,"[[6876, 324, 0], [849, 6351, 0], [1, 119, 3964]]"
0.03,0.8,800,707,0.9300476087426964,0.955,0.8820833333333333,0.970617042115573,False,"[[6876, 324, 0], [849, 6351, 0], [1, 119, 3964]]"
0.03,0.8,900,707,0.9300476087426964,0.955,0.8820833333333333,0.970617042115573,False,"[[6876, 324, 0], [849, 6351, 0], [1, 119, 3964]]"
0.03,0.8,1000,707,0.9300476087426964,0.955,0.8820833333333333,0.970617042115573,False,"[[6876, 324, 0], [849, 6351, 0], [1, 119, 3964]]"
0.03,0.8,1200,707,0.9300476087426964,0.955,0.8820833333333333,0.970617042115573,False,"[[6876, 324, 0], [849, 6351, 0], [1, 119, 3964]]"
0.03,0.95,all,707,0.9300476087426964,0.955,0.8820833333333333,0.970617042115573,False,"[[6876, 324, 0], [849, 6351, 0], [1, 119, 3964]]"
0.03,0.95,800,707,0.9300476087426964,0.955,0.8820833333333333,0.970617042115573,False,"[[6876, 324, 0], [849, 6351, 0], [1, 119, 3964]]"
0.03,0.95,900,707,0.9300476087426964,0.955,0.8820833333333333,0.970617042115573,False,"[[6876, 324, 0], [849, 6351, 0], [1, 119, 3964]]"
0.03,0.95,1000,707,0.9300476087426964,0.955,0.8820833333333333,0.970617042115573,False,"[[6876, 324, 0], [849, 6351, 0], [1, 119, 3964]]"
0.03,0.95,1200,707,0.9300476087426964,0.955,0.8820833333333333,0.970617042115573,False,"[[6876, 324, 0], [849, 6351, 0], [1, 119, 3964]]"
0.0,0.3,650,650,0.9294524994589916,0.9555555555555556,0.88,0.970617042115573,False,"[[6880, 320, 0], [864, 6336, 0], [1, 119, 3964]]"
0.0,0.35,650,650,0.9294524994589916,0.9555555555555556,0.88,0.970617042115573,False,"[[6880, 320, 0], [864, 6336, 0], [1, 119, 3964]]"
0.0,0.4,650,650,0.9294524994589916,0.9555555555555556,0.88,0.970617042115573,False,"[[6880, 320, 0], [864, 6336, 0], [1, 119, 3964]]"
0.0,0.45,650,650,0.9294524994589916,0.9555555555555556,0.88,0.970617042115573,False,"[[6880, 320, 0], [864, 6336, 0], [1, 119, 3964]]"
0.0,0.5,650,650,0.9294524994589916,0.9555555555555556,0.88,0.970617042115573,False,"[[6880, 320, 0], [864, 6336, 0], [1, 119, 3964]]"
0.0,0.55,650,650,0.9294524994589916,0.9555555555555556,0.88,0.970617042115573,False,"[[6880, 320, 0], [864, 6336, 0], [1, 119, 3964]]"
0.0,0.6,650,650,0.9294524994589916,0.9555555555555556,0.88,0.970617042115573,False,"[[6880, 320, 0], [864, 6336, 0], [1, 119, 3964]]"
0.0,0.7,650,650,0.9294524994589916,0.9555555555555556,0.88,0.970617042115573,False,"[[6880, 320, 0], [864, 6336, 0], [1, 119, 3964]]"
0.0,0.8,650,650,0.9294524994589916,0.9555555555555556,0.88,0.970617042115573,False,"[[6880, 320, 0], [864, 6336, 0], [1, 119, 3964]]"
0.0,0.95,650,650,0.9294524994589916,0.9555555555555556,0.88,0.970617042115573,False,"[[6880, 320, 0], [864, 6336, 0], [1, 119, 3964]]"
2e-05,0.3,650,650,0.9294524994589916,0.9555555555555556,0.88,0.970617042115573,False,"[[6880, 320, 0], [864, 6336, 0], [1, 119, 3964]]"
2e-05,0.35,650,650,0.9294524994589916,0.9555555555555556,0.88,0.970617042115573,False,"[[6880, 320, 0], [864, 6336, 0], [1, 119, 3964]]"
2e-05,0.4,650,650,0.9294524994589916,0.9555555555555556,0.88,0.970617042115573,False,"[[6880, 320, 0], [864, 6336, 0], [1, 119, 3964]]"
2e-05,0.45,650,650,0.9294524994589916,0.9555555555555556,0.88,0.970617042115573,False,"[[6880, 320, 0], [864, 6336, 0], [1, 119, 3964]]"
2e-05,0.5,650,650,0.9294524994589916,0.9555555555555556,0.88,0.970617042115573,False,"[[6880, 320, 0], [864, 6336, 0], [1, 119, 3964]]"
2e-05,0.55,650,650,0.9294524994589916,0.9555555555555556,0.88,0.970617042115573,False,"[[6880, 320, 0], [864, 6336, 0], [1, 119, 3964]]"
2e-05,0.6,650,650,0.9294524994589916,0.9555555555555556,0.88,0.970617042115573,False,"[[6880, 320, 0], [864, 6336, 0], [1, 119, 3964]]"
2e-05,0.7,650,650,0.9294524994589916,0.9555555555555556,0.88,0.970617042115573,False,"[[6880, 320, 0], [864, 6336, 0], [1, 119, 3964]]"
2e-05,0.8,650,650,0.9294524994589916,0.9555555555555556,0.88,0.970617042115573,False,"[[6880, 320, 0], [864, 6336, 0], [1, 119, 3964]]"
2e-05,0.95,650,650,0.9294524994589916,0.9555555555555556,0.88,0.970617042115573,False,"[[6880, 320, 0], [864, 6336, 0], [1, 119, 3964]]"
5e-05,0.3,650,650,0.9294524994589916,0.9555555555555556,0.88,0.970617042115573,False,"[[6880, 320, 0], [864, 6336, 0], [1, 119, 3964]]"
5e-05,0.35,650,650,0.9294524994589916,0.9555555555555556,0.88,0.970617042115573,False,"[[6880, 320, 0], [864, 6336, 0], [1, 119, 3964]]"
5e-05,0.4,650,650,0.9294524994589916,0.9555555555555556,0.88,0.970617042115573,False,"[[6880, 320, 0], [864, 6336, 0], [1, 119, 3964]]"
5e-05,0.45,650,650,0.9294524994589916,0.9555555555555556,0.88,0.970617042115573,False,"[[6880, 320, 0], [864, 6336, 0], [1, 119, 3964]]"
5e-05,0.5,650,650,0.9294524994589916,0.9555555555555556,0.88,0.970617042115573,False,"[[6880, 320, 0], [864, 6336, 0], [1, 119, 3964]]"
5e-05,0.55,650,650,0.9294524994589916,0.9555555555555556,0.88,0.970617042115573,False,"[[6880, 320, 0], [864, 6336, 0], [1, 119, 3964]]"
5e-05,0.6,650,650,0.9294524994589916,0.9555555555555556,0.88,0.970617042115573,False,"[[6880, 320, 0], [864, 6336, 0], [1, 119, 3964]]"
5e-05,0.7,650,650,0.9294524994589916,0.9555555555555556,0.88,0.970617042115573,False,"[[6880, 320, 0], [864, 6336, 0], [1, 119, 3964]]"
5e-05,0.8,650,650,0.9294524994589916,0.9555555555555556,0.88,0.970617042115573,False,"[[6880, 320, 0], [864, 6336, 0], [1, 119, 3964]]"
5e-05,0.95,650,650,0.9294524994589916,0.9555555555555556,0.88,0.970617042115573,False,"[[6880, 320, 0], [864, 6336, 0], [1, 119, 3964]]"
0.0001,0.3,650,650,0.9294524994589916,0.9555555555555556,0.88,0.970617042115573,False,"[[6880, 320, 0], [864, 6336, 0], [1, 119, 3964]]"
0.0001,0.35,650,650,0.9294524994589916,0.9555555555555556,0.88,0.970617042115573,False,"[[6880, 320, 0], [864, 6336, 0], [1, 119, 3964]]"
0.0001,0.4,650,650,0.9294524994589916,0.9555555555555556,0.88,0.970617042115573,False,"[[6880, 320, 0], [864, 6336, 0], [1, 119, 3964]]"
0.0001,0.45,650,650,0.9294524994589916,0.9555555555555556,0.88,0.970617042115573,False,"[[6880, 320, 0], [864, 6336, 0], [1, 119, 3964]]"
0.0001,0.5,650,650,0.9294524994589916,0.9555555555555556,0.88,0.970617042115573,False,"[[6880, 320, 0], [864, 6336, 0], [1, 119, 3964]]"
0.0001,0.55,650,650,0.9294524994589916,0.9555555555555556,0.88,0.970617042115573,False,"[[6880, 320, 0], [864, 6336, 0], [1, 119, 3964]]"
