baseline_min,flatline_min,qrs_max,pc1_max,acc,good,medium,bad,new_gate_n,stress_hits,nonbad_gate
0.55,0.24,0.2,-1.0,0.747080335024183,0.7302197802197802,0.7383642114776322,0.9902676399026764,2245,245,2000
0.55,0.24,0.2,0.0,0.746962368762534,0.7302197802197802,0.7381382738364212,0.9902676399026764,2253,252,2001
0.55,0.24,0.2,1.5,0.746962368762534,0.7302197802197802,0.7381382738364212,0.9902676399026764,2253,252,2001
0.55,0.24,0.2,3.0,0.746962368762534,0.7302197802197802,0.7381382738364212,0.9902676399026764,2253,252,2001
0.55,0.24,0.2,5.0,0.746962368762534,0.7302197802197802,0.7381382738364212,0.9902676399026764,2253,252,2001
0.55,0.18,0.2,-1.0,0.682552789902088,0.6914835164835165,0.6466335291459557,0.9902676399026764,2831,256,2575
0.55,0.18,0.2,0.0,0.6793677008375605,0.6912087912087912,0.6407591504744691,0.9902676399026764,2872,270,2602
0.55,0.18,0.2,1.5,0.6792497345759113,0.6912087912087912,0.640533212833258,0.9902676399026764,2874,271,2603
0.55,0.18,0.2,3.0,0.6792497345759113,0.6912087912087912,0.640533212833258,0.9902676399026764,2874,271,2603
0.55,0.18,0.2,5.0,0.6792497345759113,0.6912087912087912,0.640533212833258,0.9902676399026764,2874,271,2603
0.55,0.24,0.12,-1.0,0.7871888639849003,0.8195054945054945,0.7419792137370086,0.9878345498783455,1874,223,1651
0.55,0.24,0.12,0.0,0.7870708977232511,0.8195054945054945,0.7417532760957976,0.9878345498783455,1881,229,1652
0.55,0.24,0.12,1.5,0.7870708977232511,0.8195054945054945,0.7417532760957976,0.9878345498783455,1881,229,1652
0.55,0.24,0.12,3.0,0.7870708977232511,0.8195054945054945,0.7417532760957976,0.9878345498783455,1881,229,1652
0.55,0.24,0.12,5.0,0.7870708977232511,0.8195054945054945,0.7417532760957976,0.9878345498783455,1881,229,1652
0.55,0.24,0.16,-1.0,0.7671345995045417,0.7755494505494506,0.7397198373248983,0.9878345498783455,2064,240,1824
0.55,0.24,0.16,0.0,0.7670166332428925,0.7755494505494506,0.7394938996836873,0.9878345498783455,2072,247,1825
0.55,0.24,0.16,1.5,0.7670166332428925,0.7755494505494506,0.7394938996836873,0.9878345498783455,2072,247,1825
0.55,0.24,0.16,3.0,0.7670166332428925,0.7755494505494506,0.7394938996836873,0.9878345498783455,2072,247,1825
0.55,0.24,0.16,5.0,0.7670166332428925,0.7755494505494506,0.7394938996836873,0.9878345498783455,2072,247,1825
0.75,0.24,0.2,-1.0,0.7615901852070308,0.7601648351648351,0.7417532760957976,0.9878345498783455,2111,239,1872
0.75,0.24,0.2,0.0,0.7614722189453816,0.7601648351648351,0.7415273384545865,0.9878345498783455,2118,245,1873
0.75,0.24,0.2,1.5,0.7614722189453816,0.7601648351648351,0.7415273384545865,0.9878345498783455,2118,245,1873
0.75,0.24,0.2,3.0,0.7614722189453816,0.7601648351648351,0.7415273384545865,0.9878345498783455,2118,245,1873
0.75,0.24,0.2,5.0,0.7614722189453816,0.7601648351648351,0.7415273384545865,0.9878345498783455,2118,245,1873
0.65,0.24,0.2,-1.0,0.7530966143682907,0.7434065934065934,0.7392679620424762,0.9878345498783455,2187,241,1946
0.65,0.24,0.2,0.0,0.7529786481066415,0.7434065934065934,0.7390420244012652,0.9878345498783455,2195,248,1947
0.65,0.24,0.2,1.5,0.7529786481066415,0.7434065934065934,0.7390420244012652,0.9878345498783455,2195,248,1947
0.65,0.24,0.2,3.0,0.7529786481066415,0.7434065934065934,0.7390420244012652,0.9878345498783455,2195,248,1947
0.65,0.24,0.2,5.0,0.7529786481066415,0.7434065934065934,0.7390420244012652,0.9878345498783455,2195,248,1947
0.55,0.18,0.12,-1.0,0.7296213283001062,0.792032967032967,0.6543154089471306,0.9878345498783455,2392,233,2159
0.55,0.18,0.12,0.0,0.726672171758877,0.792032967032967,0.648666967916855,0.9878345498783455,2429,245,2184
0.55,0.18,0.12,1.5,0.7265542054972278,0.792032967032967,0.6484410302756439,0.9878345498783455,2431,246,2185
0.55,0.18,0.12,3.0,0.7265542054972278,0.792032967032967,0.6484410302756439,0.9878345498783455,2431,246,2185
0.55,0.18,0.12,5.0,0.7265542054972278,0.792032967032967,0.6484410302756439,0.9878345498783455,2431,246,2185
0.75,0.18,0.2,-1.0,0.70496637961543,0.7321428571428571,0.6563488477180298,0.9878345498783455,2628,248,2380
0.55,0.18,0.16,-1.0,0.7040226495222366,0.7395604395604396,0.6484410302756439,0.9878345498783455,2635,251,2384
0.75,0.18,0.2,0.0,0.7018992568125516,0.7318681318681318,0.6507004066877542,0.9878345498783455,2667,261,2406
0.75,0.18,0.2,1.5,0.7017812905509024,0.7318681318681318,0.6504744690465432,0.9878345498783455,2669,262,2407
0.75,0.18,0.2,3.0,0.7017812905509024,0.7318681318681318,0.6504744690465432,0.9878345498783455,2669,262,2407
0.75,0.18,0.2,5.0,0.7017812905509024,0.7318681318681318,0.6504744690465432,0.9878345498783455,2669,262,2407
0.55,0.18,0.16,0.0,0.7009555267193582,0.7395604395604396,0.6425666516041573,0.9878345498783455,2675,265,2410
0.55,0.18,0.16,1.5,0.7008375604577091,0.7395604395604396,0.6423407139629462,0.9878345498783455,2677,266,2411
0.55,0.18,0.16,3.0,0.7008375604577091,0.7395604395604396,0.6423407139629462,0.9878345498783455,2677,266,2411
0.55,0.18,0.16,5.0,0.7008375604577091,0.7395604395604396,0.6423407139629462,0.9878345498783455,2677,266,2411
0.65,0.18,0.2,-1.0,0.6923439896189689,0.7098901098901099,0.6504744690465432,0.9878345498783455,2741,252,2489
0.65,0.18,0.2,0.0,0.6892768668160906,0.7096153846153846,0.6448260280162675,0.9878345498783455,2781,266,2515
0.65,0.18,0.2,1.5,0.6891589005544414,0.7096153846153846,0.6446000903750565,0.9878345498783455,2783,267,2516
0.65,0.18,0.2,3.0,0.6891589005544414,0.7096153846153846,0.6446000903750565,0.9878345498783455,2783,267,2516
0.65,0.18,0.2,5.0,0.6891589005544414,0.7096153846153846,0.6446000903750565,0.9878345498783455,2783,267,2516
0.55,0.24,0.08,-1.0,0.8228146750029491,0.8914835164835165,0.7512426570266606,0.9854014598540146,1531,191,1340
0.55,0.24,0.08,0.0,0.8226967087413,0.8914835164835165,0.7510167193854496,0.9854014598540146,1537,196,1341
0.55,0.24,0.08,1.5,0.8226967087413,0.8914835164835165,0.7510167193854496,0.9854014598540146,1537,196,1341
0.55,0.24,0.08,3.0,0.8226967087413,0.8914835164835165,0.7510167193854496,0.9854014598540146,1537,196,1341
0.55,0.24,0.08,5.0,0.8226967087413,0.8914835164835165,0.7510167193854496,0.9854014598540146,1537,196,1341
0.55,0.24,0.1,-1.0,0.8014627816444497,0.8483516483516483,0.745820153637596,0.9854014598540146,1735,209,1526
0.55,0.24,0.1,0.0,0.8013448153828006,0.8483516483516483,0.745594215996385,0.9854014598540146,1741,214,1527
0.55,0.24,0.1,1.5,0.8013448153828006,0.8483516483516483,0.745594215996385,0.9854014598540146,1741,214,1527
0.55,0.24,0.1,3.0,0.8013448153828006,0.8483516483516483,0.745594215996385,0.9854014598540146,1741,214,1527
0.55,0.24,0.1,5.0,0.8013448153828006,0.8483516483516483,0.745594215996385,0.9854014598540146,1741,214,1527
0.75,0.24,0.12,-1.0,0.7946207384687979,0.8332417582417583,0.7451423407139629,0.9854014598540146,1801,218,1583
0.75,0.24,0.12,0.0,0.7945027722071487,0.8332417582417583,0.744916403072752,0.9854014598540146,1807,223,1584
0.75,0.24,0.12,1.5,0.7945027722071487,0.8332417582417583,0.744916403072752,0.9854014598540146,1807,223,1584
0.75,0.24,0.12,3.0,0.7945027722071487,0.8332417582417583,0.744916403072752,0.9854014598540146,1807,223,1584
0.75,0.24,0.12,5.0,0.7945027722071487,0.8332417582417583,0.744916403072752,0.9854014598540146,1807,223,1584
0.65,0.24,0.12,-1.0,0.7896661554795329,0.8244505494505494,0.7428829643018527,0.9854014598540146,1847,220,1627
0.65,0.24,0.12,0.0,0.7895481892178837,0.8244505494505494,0.7426570266606417,0.9854014598540146,1854,226,1628
0.65,0.24,0.12,1.5,0.7895481892178837,0.8244505494505494,0.7426570266606417,0.9854014598540146,1854,226,1628
0.65,0.24,0.12,3.0,0.7895481892178837,0.8244505494505494,0.7426570266606417,0.9854014598540146,1854,226,1628
0.65,0.24,0.12,5.0,0.7895481892178837,0.8244505494505494,0.7426570266606417,0.9854014598540146,1854,226,1628
0.75,0.24,0.16,-1.0,0.7783413943612127,0.7980769230769231,0.7428829643018527,0.9854014598540146,1958,234,1724
0.75,0.24,0.16,0.0,0.7782234280995636,0.7980769230769231,0.7426570266606417,0.9854014598540146,1965,240,1725
0.75,0.24,0.16,1.5,0.7782234280995636,0.7980769230769231,0.7426570266606417,0.9854014598540146,1965,240,1725
0.75,0.24,0.16,3.0,0.7782234280995636,0.7980769230769231,0.7426570266606417,0.9854014598540146,1965,240,1725
0.75,0.24,0.16,5.0,0.7782234280995636,0.7980769230769231,0.7426570266606417,0.9854014598540146,1965,240,1725
0.55,0.18,0.08,-1.0,0.7762180016515277,0.8769230769230769,0.6739719837324898,0.9854014598540146,1946,198,1748
0.55,0.18,0.08,0.0,0.7733868113719476,0.8769230769230769,0.6685494803434252,0.9854014598540146,1979,207,1772
0.55,0.18,0.08,1.5,0.7732688451102985,0.8769230769230769,0.6683235427022142,0.9854014598540146,1981,208,1773
0.55,0.18,0.08,3.0,0.7732688451102985,0.8769230769230769,0.6683235427022142,0.9854014598540146,1981,208,1773
0.55,0.18,0.08,5.0,0.7732688451102985,0.8769230769230769,0.6683235427022142,0.9854014598540146,1981,208,1773
0.65,0.24,0.16,-1.0,0.7718532499705084,0.7857142857142857,0.7406235878897425,0.9854014598540146,2017,236,1781
0.65,0.24,0.16,0.0,0.7717352837088592,0.7857142857142857,0.7403976502485314,0.9854014598540146,2025,243,1782
0.65,0.24,0.16,1.5,0.7717352837088592,0.7857142857142857,0.7403976502485314,0.9854014598540146,2025,243,1782
0.65,0.24,0.16,3.0,0.7717352837088592,0.7857142857142857,0.7403976502485314,0.9854014598540146,2025,243,1782
0.65,0.24,0.16,5.0,0.7717352837088592,0.7857142857142857,0.7403976502485314,0.9854014598540146,2025,243,1782
0.85,0.24,0.2,-1.0,0.7717352837088592,0.7793956043956044,0.745594215996385,0.9854014598540146,2015,230,1785
0.85,0.24,0.2,0.0,0.7716173174472101,0.7793956043956044,0.7453682783551739,0.9854014598540146,2021,235,1786
0.85,0.24,0.2,1.5,0.7716173174472101,0.7793956043956044,0.7453682783551739,0.9854014598540146,2021,235,1786
0.85,0.24,0.2,3.0,0.7716173174472101,0.7793956043956044,0.7453682783551739,0.9854014598540146,2021,235,1786
0.85,0.24,0.2,5.0,0.7716173174472101,0.7793956043956044,0.7453682783551739,0.9854014598540146,2021,235,1786
0.55,0.18,0.1,-1.0,0.7479060988557272,0.826098901098901,0.6615454134658835,0.9854014598540146,2216,219,1997
0.55,0.18,0.1,0.0,0.744956942314498,0.826098901098901,0.6558969724356077,0.9854014598540146,2252,230,2022
0.55,0.18,0.1,1.5,0.7448389760528489,0.826098901098901,0.6556710347943967,0.9854014598540146,2254,231,2023
0.55,0.18,0.1,3.0,0.7448389760528489,0.826098901098901,0.6556710347943967,0.9854014598540146,2254,231,2023
0.55,0.18,0.1,5.0,0.7448389760528489,0.826098901098901,0.6556710347943967,0.9854014598540146,2254,231,2023
0.75,0.18,0.12,-1.0,0.7429515158664622,0.8131868131868132,0.6626751016719385,0.9854014598540146,2268,227,2041
0.75,0.18,0.12,0.0,0.740002359325233,0.8131868131868132,0.6570266606416629,0.9854014598540146,2304,238,2066
0.75,0.18,0.12,1.5,0.7398843930635838,0.8131868131868132,0.6568007230004519,0.9854014598540146,2306,239,2067
0.75,0.18,0.12,3.0,0.7398843930635838,0.8131868131868132,0.6568007230004519,0.9854014598540146,2306,239,2067
0.75,0.18,0.12,5.0,0.7398843930635838,0.8131868131868132,0.6568007230004519,0.9854014598540146,2306,239,2067
0.65,0.18,0.12,-1.0,0.7348118438126696,0.8008241758241759,0.657252598282874,0.9854014598540146,2342,230,2112
0.65,0.18,0.12,0.0,0.7318626872714403,0.8008241758241759,0.6516041572525982,0.9854014598540146,2379,242,2137
0.65,0.18,0.12,1.5,0.7317447210097912,0.8008241758241759,0.6513782196113873,0.9854014598540146,2381,243,2138
0.65,0.18,0.12,3.0,0.7317447210097912,0.8008241758241759,0.6513782196113873,0.9854014598540146,2381,243,2138
0.65,0.18,0.12,5.0,0.7317447210097912,0.8008241758241759,0.6513782196113873,0.9854014598540146,2381,243,2138
0.75,0.18,0.16,-1.0,0.7226613188628053,0.7717032967032967,0.657930411206507,0.9854014598540146,2464,243,2221
0.75,0.18,0.16,0.0,0.719712162321576,0.7717032967032967,0.6522819701762314,0.9854014598540146,2502,256,2246
0.75,0.18,0.16,1.5,0.7195941960599269,0.7717032967032967,0.6520560325350203,0.9854014598540146,2504,257,2247
0.75,0.18,0.16,3.0,0.7195941960599269,0.7717032967032967,0.6520560325350203,0.9854014598540146,2504,257,2247
0.75,0.18,0.16,5.0,0.7195941960599269,0.7717032967032967,0.6520560325350203,0.9854014598540146,2504,257,2247
0.85,0.18,0.2,-1.0,0.7185324997050844,0.7557692307692307,0.6631269769543606,0.9854014598540146,2501,238,2263
0.85,0.18,0.2,0.0,0.7155833431638552,0.7554945054945055,0.6577044735652959,0.9854014598540146,2538,250,2288
0.85,0.18,0.2,1.5,0.715465376902206,0.7554945054945055,0.657478535924085,0.9854014598540146,2540,251,2289
0.85,0.18,0.2,3.0,0.715465376902206,0.7554945054945055,0.657478535924085,0.9854014598540146,2540,251,2289
0.85,0.18,0.2,5.0,0.715465376902206,0.7554945054945055,0.657478535924085,0.9854014598540146,2540,251,2289
0.65,0.18,0.16,-1.0,0.7123982540993276,0.7546703296703297,0.6522819701762314,0.9854014598540146,2557,247,2310
0.65,0.18,0.16,0.0,0.7094490975580984,0.7546703296703297,0.6466335291459557,0.9854014598540146,2596,261,2335
0.65,0.18,0.16,1.5,0.7093311312964492,0.7546703296703297,0.6464075915047447,0.9854014598540146,2598,262,2336
0.65,0.18,0.16,3.0,0.7093311312964492,0.7546703296703297,0.6464075915047447,0.9854014598540146,2598,262,2336
0.65,0.18,0.16,5.0,0.7093311312964492,0.7546703296703297,0.6464075915047447,0.9854014598540146,2598,262,2336
0.85,0.24,0.08,-1.0,0.8287129880854076,0.8986263736263737,0.7568910980569363,0.9829683698296837,1469,183,1286
0.85,0.24,0.08,0.0,0.8285950218237584,0.8986263736263737,0.7566651604157253,0.9829683698296837,1474,187,1287
0.85,0.24,0.08,1.5,0.8285950218237584,0.8986263736263737,0.7566651604157253,0.9829683698296837,1474,187,1287
0.85,0.24,0.08,3.0,0.8285950218237584,0.8986263736263737,0.7566651604157253,0.9829683698296837,1474,187,1287
0.85,0.24,0.08,5.0,0.8285950218237584,0.8986263736263737,0.7566651604157253,0.9829683698296837,1474,187,1287
0.75,0.24,0.08,-1.0,0.8258817978058275,0.8958791208791209,0.7537279710799819,0.9829683698296837,1497,187,1310
0.75,0.24,0.08,0.0,0.8257638315441783,0.8958791208791209,0.7535020334387709,0.9829683698296837,1502,191,1311
0.75,0.24,0.08,1.5,0.8257638315441783,0.8958791208791209,0.7535020334387709,0.9829683698296837,1502,191,1311
0.75,0.24,0.08,3.0,0.8257638315441783,0.8958791208791209,0.7535020334387709,0.9829683698296837,1502,191,1311
0.75,0.24,0.08,5.0,0.8257638315441783,0.8958791208791209,0.7535020334387709,0.9829683698296837,1502,191,1311
0.65,0.24,0.08,-1.0,0.8232865400495458,0.8923076923076924,0.7516945323090827,0.9829683698296837,1522,188,1334
0.65,0.24,0.08,0.0,0.8231685737878967,0.8923076923076924,0.7514685946678716,0.9829683698296837,1528,193,1335
0.65,0.24,0.08,1.5,0.8231685737878967,0.8923076923076924,0.7514685946678716,0.9829683698296837,1528,193,1335
0.65,0.24,0.08,3.0,0.8231685737878967,0.8923076923076924,0.7514685946678716,0.9829683698296837,1528,193,1335
0.65,0.24,0.08,5.0,0.8231685737878967,0.8923076923076924,0.7514685946678716,0.9829683698296837,1528,193,1335
0.85,0.24,0.1,-1.0,0.8117258464079273,0.8645604395604396,0.7523723452327158,0.9829683698296837,1635,200,1435
0.85,0.24,0.1,0.0,0.8116078801462782,0.8645604395604396,0.7521464075915048,0.9829683698296837,1640,204,1436
0.85,0.24,0.1,1.5,0.8116078801462782,0.8645604395604396,0.7521464075915048,0.9829683698296837,1640,204,1436
0.85,0.24,0.1,3.0,0.8116078801462782,0.8645604395604396,0.7521464075915048,0.9829683698296837,1640,204,1436
0.85,0.24,0.1,5.0,0.8116078801462782,0.8645604395604396,0.7521464075915048,0.9829683698296837,1640,204,1436
1.1,0.24,0.2,-1.0,0.809366521174944,0.8409340659340659,0.7672842295526434,0.9829683698296837,1648,198,1450
1.1,0.24,0.2,0.0,0.8092485549132948,0.8409340659340659,0.7670582919114325,0.9829683698296837,1652,201,1451
1.1,0.24,0.2,1.5,0.8092485549132948,0.8409340659340659,0.7670582919114325,0.9829683698296837,1652,201,1451
1.1,0.24,0.2,3.0,0.8092485549132948,0.8409340659340659,0.7670582919114325,0.9829683698296837,1652,201,1451
1.1,0.24,0.2,5.0,0.8092485549132948,0.8409340659340659,0.7670582919114325,0.9829683698296837,1652,201,1451
0.75,0.24,0.1,-1.0,0.8068892296803114,0.8576923076923076,0.7487573429733394,0.9829683698296837,1680,204,1476
0.75,0.24,0.1,0.0,0.8067712634186622,0.8576923076923076,0.7485314053321284,0.9829683698296837,1685,208,1477
0.75,0.24,0.1,1.5,0.8067712634186622,0.8576923076923076,0.7485314053321284,0.9829683698296837,1685,208,1477
0.75,0.24,0.1,3.0,0.8067712634186622,0.8576923076923076,0.7485314053321284,0.9829683698296837,1685,208,1477
0.75,0.24,0.1,5.0,0.8067712634186622,0.8576923076923076,0.7485314053321284,0.9829683698296837,1685,208,1477
0.65,0.24,0.1,-1.0,0.8027604105225905,0.8508241758241758,0.7464979665612291,0.9829683698296837,1719,206,1513
0.65,0.24,0.1,0.0,0.8026424442609413,0.8508241758241758,0.7462720289200181,0.9829683698296837,1725,211,1514
0.65,0.24,0.1,1.5,0.8026424442609413,0.8508241758241758,0.7462720289200181,0.9829683698296837,1725,211,1514
0.65,0.24,0.1,3.0,0.8026424442609413,0.8508241758241758,0.7462720289200181,0.9829683698296837,1725,211,1514
0.65,0.24,0.1,5.0,0.8026424442609413,0.8508241758241758,0.7462720289200181,0.9829683698296837,1725,211,1514
0.85,0.24,0.12,-1.0,0.8007549840745547,0.8434065934065934,0.7487573429733394,0.9829683698296837,1741,211,1530
0.85,0.24,0.12,0.0,0.8006370178129055,0.8434065934065934,0.7485314053321284,0.9829683698296837,1746,215,1531
0.85,0.24,0.12,1.5,0.8006370178129055,0.8434065934065934,0.7485314053321284,0.9829683698296837,1746,215,1531
0.85,0.24,0.12,3.0,0.8006370178129055,0.8434065934065934,0.7485314053321284,0.9829683698296837,1746,215,1531
0.85,0.24,0.12,5.0,0.8006370178129055,0.8434065934065934,0.7485314053321284,0.9829683698296837,1746,215,1531
0.85,0.18,0.08,-1.0,0.7867169989383036,0.889010989010989,0.684365115228197,0.9829683698296837,1844,189,1655
0.85,0.24,0.16,-1.0,0.7863631001533561,0.8123626373626374,0.7467239042024402,0.9829683698296837,1880,225,1655
0.85,0.24,0.16,0.0,0.786245133891707,0.8123626373626374,0.7464979665612291,0.9829683698296837,1886,230,1656
0.85,0.24,0.16,1.5,0.786245133891707,0.8123626373626374,0.7464979665612291,0.9829683698296837,1886,230,1656
0.85,0.24,0.16,3.0,0.786245133891707,0.8123626373626374,0.7464979665612291,0.9829683698296837,1886,230,1656
0.85,0.24,0.16,5.0,0.786245133891707,0.8123626373626374,0.7464979665612291,0.9829683698296837,1886,230,1656
0.95,0.24,0.2,-1.0,0.785537336321812,0.8043956043956044,0.7516945323090827,0.9829683698296837,1881,217,1664
0.95,0.24,0.2,0.0,0.7854193700601628,0.8043956043956044,0.7514685946678716,0.9829683698296837,1887,222,1665
0.95,0.24,0.2,1.5,0.7854193700601628,0.8043956043956044,0.7514685946678716,0.9829683698296837,1887,222,1665
0.95,0.24,0.2,3.0,0.7854193700601628,0.8043956043956044,0.7514685946678716,0.9829683698296837,1887,222,1665
0.95,0.24,0.2,5.0,0.7854193700601628,0.8043956043956044,0.7514685946678716,0.9829683698296837,1887,222,1665
0.85,0.18,0.08,0.0,0.7840037749203728,0.889010989010989,0.6791685494803434,0.9829683698296837,1875,197,1678
0.85,0.18,0.08,1.5,0.7838858086587236,0.889010989010989,0.6789426118391324,0.9829683698296837,1877,198,1679
0.85,0.18,0.08,3.0,0.7838858086587236,0.889010989010989,0.6789426118391324,0.9829683698296837,1877,198,1679
0.85,0.18,0.08,5.0,0.7838858086587236,0.889010989010989,0.6789426118391324,0.9829683698296837,1877,198,1679
0.75,0.18,0.08,-1.0,0.7823522472572845,0.8846153846153846,0.6796204247627655,0.9829683698296837,1886,194,1692
0.75,0.18,0.08,0.0,0.7795210569777044,0.8846153846153846,0.6741979213737008,0.9829683698296837,1918,202,1716
0.75,0.18,0.08,1.5,0.7794030907160552,0.8846153846153846,0.6739719837324898,0.9829683698296837,1920,203,1717
0.75,0.18,0.08,3.0,0.7794030907160552,0.8846153846153846,0.6739719837324898,0.9829683698296837,1920,203,1717
0.75,0.18,0.08,5.0,0.7794030907160552,0.8846153846153846,0.6739719837324898,0.9829683698296837,1920,203,1717
0.65,0.18,0.08,-1.0,0.7776335967913177,0.8785714285714286,0.675553547220967,0.9829683698296837,1929,195,1734
0.65,0.18,0.08,0.0,0.7748024065117376,0.8785714285714286,0.6701310438319024,0.9829683698296837,1962,204,1758
0.65,0.18,0.08,1.5,0.7746844402500884,0.8785714285714286,0.6699051061906913,0.9829683698296837,1964,205,1759
0.65,0.18,0.08,3.0,0.7746844402500884,0.8785714285714286,0.6699051061906913,0.9829683698296837,1964,205,1759
0.65,0.18,0.08,5.0,0.7746844402500884,0.8785714285714286,0.6699051061906913,0.9829683698296837,1964,205,1759
1.1,0.18,0.2,-1.0,0.7683142621210334,0.8277472527472527,0.6995029371893358,0.9829683698296837,2025,205,1820
1.1,0.18,0.2,0.0,0.7657190043647517,0.8274725274725274,0.6947582467239042,0.9829683698296837,2054,212,1842
1.1,0.18,0.2,1.5,0.7656010381031025,0.8274725274725274,0.6945323090826931,0.9829683698296837,2055,212,1843
1.1,0.18,0.2,3.0,0.7656010381031025,0.8274725274725274,0.6945323090826931,0.9829683698296837,2055,212,1843
1.1,0.18,0.2,5.0,0.7656010381031025,0.8274725274725274,0.6945323090826931,0.9829683698296837,2055,212,1843
0.85,0.18,0.1,-1.0,0.7644213754866108,0.8497252747252747,0.6739719837324898,0.9829683698296837,2061,208,1853
0.85,0.18,0.1,0.0,0.7615901852070308,0.8497252747252747,0.6685494803434252,0.9829683698296837,2095,218,1877
0.85,0.18,0.1,1.5,0.7614722189453816,0.8497252747252747,0.6683235427022142,0.9829683698296837,2097,219,1878
0.85,0.18,0.1,3.0,0.7614722189453816,0.8497252747252747,0.6683235427022142,0.9829683698296837,2097,219,1878
0.85,0.18,0.1,5.0,0.7614722189453816,0.8497252747252747,0.6683235427022142,0.9829683698296837,2097,219,1878
0.75,0.18,0.1,-1.0,0.7576972985726083,0.8406593406593407,0.6685494803434252,0.9829683698296837,2123,213,1910
0.75,0.18,0.1,0.0,0.7547481420313791,0.8406593406593407,0.6629010393131496,0.9829683698296837,2158,223,1935
0.75,0.18,0.1,1.5,0.7546301757697299,0.8406593406593407,0.6626751016719385,0.9829683698296837,2160,224,1936
0.75,0.18,0.1,3.0,0.7546301757697299,0.8406593406593407,0.6626751016719385,0.9829683698296837,2160,224,1936
0.75,0.18,0.1,5.0,0.7546301757697299,0.8406593406593407,0.6626751016719385,0.9829683698296837,2160,224,1936
0.85,0.18,0.12,-1.0,0.7513271204435531,0.826098901098901,0.6683235427022142,0.9829683698296837,2188,219,1969
0.65,0.18,0.1,-1.0,0.7508552553969565,0.8304945054945055,0.6638047898779936,0.9829683698296837,2186,216,1970
0.85,0.18,0.12,0.0,0.7484959301639731,0.826098901098901,0.6629010393131496,0.9829683698296837,2222,229,1993
0.85,0.18,0.12,1.5,0.7483779639023239,0.826098901098901,0.6626751016719385,0.9829683698296837,2224,230,1994
0.85,0.18,0.12,3.0,0.7483779639023239,0.826098901098901,0.6626751016719385,0.9829683698296837,2224,230,1994
0.85,0.18,0.12,5.0,0.7483779639023239,0.826098901098901,0.6626751016719385,0.9829683698296837,2224,230,1994
0.65,0.18,0.1,0.0,0.7479060988557272,0.8304945054945055,0.658156348847718,0.9829683698296837,2222,227,1995
0.65,0.18,0.1,1.5,0.7477881325940781,0.8304945054945055,0.657930411206507,0.9829683698296837,2224,228,1996
0.65,0.18,0.1,3.0,0.7477881325940781,0.8304945054945055,0.657930411206507,0.9829683698296837,2224,228,1996
0.65,0.18,0.1,5.0,0.7477881325940781,0.8304945054945055,0.657930411206507,0.9829683698296837,2224,228,1996
0.95,0.18,0.2,-1.0,0.7379969328771971,0.7862637362637362,0.675553547220967,0.9829683698296837,2316,225,2091
0.95,0.18,0.2,0.0,0.7352837088592663,0.785989010989011,0.6705829191143244,0.9829683698296837,2349,235,2114
0.95,0.18,0.2,1.5,0.7351657425976171,0.785989010989011,0.6703569814731134,0.9829683698296837,2350,235,2115
0.95,0.18,0.2,3.0,0.7351657425976171,0.785989010989011,0.6703569814731134,0.9829683698296837,2350,235,2115
0.95,0.18,0.2,5.0,0.7351657425976171,0.785989010989011,0.6703569814731134,0.9829683698296837,2350,235,2115
0.85,0.18,0.16,-1.0,0.7341040462427746,0.7903846153846154,0.6647085404428378,0.9829683698296837,2356,233,2123
0.85,0.18,0.16,0.0,0.7312728559631946,0.7903846153846154,0.6592860370537732,0.9829683698296837,2392,245,2147
0.85,0.18,0.16,1.5,0.7311548897015454,0.7903846153846154,0.6590600994125622,0.9829683698296837,2394,246,2148
0.85,0.18,0.16,3.0,0.7311548897015454,0.7903846153846154,0.6590600994125622,0.9829683698296837,2394,246,2148
0.85,0.18,0.16,5.0,0.7311548897015454,0.7903846153846154,0.6590600994125622,0.9829683698296837,2394,246,2148
1.1,0.24,0.08,-1.0,0.8454641972395894,0.9148351648351648,0.7758698599186624,0.9805352798053528,1296,164,1132
1.1,0.24,0.08,0.0,0.8453462309779403,0.9148351648351648,0.7756439222774514,0.9805352798053528,1299,166,1133
1.1,0.24,0.08,1.5,0.8453462309779403,0.9148351648351648,0.7756439222774514,0.9805352798053528,1299,166,1133
1.1,0.24,0.08,3.0,0.8453462309779403,0.9148351648351648,0.7756439222774514,0.9805352798053528,1299,166,1133
1.1,0.24,0.08,5.0,0.8453462309779403,0.9148351648351648,0.7756439222774514,0.9805352798053528,1299,166,1133
0.95,0.24,0.08,-1.0,0.834611301167866,0.9063186813186813,0.7620876638047899,0.9805352798053528,1407,175,1232
0.95,0.24,0.08,0.0,0.8344933349062168,0.9063186813186813,0.7618617261635788,0.9805352798053528,1412,179,1233
0.95,0.24,0.08,1.5,0.8344933349062168,0.9063186813186813,0.7618617261635788,0.9805352798053528,1412,179,1233
0.95,0.24,0.08,3.0,0.8344933349062168,0.9063186813186813,0.7618617261635788,0.9805352798053528,1412,179,1233
0.95,0.24,0.08,5.0,0.8344933349062168,0.9063186813186813,0.7618617261635788,0.9805352798053528,1412,179,1233
1.1,0.24,0.1,-1.0,0.8336675710746726,0.8923076923076924,0.771802982376864,0.9805352798053528,1412,176,1236
1.1,0.24,0.1,0.0,0.8335496048130234,0.8923076923076924,0.7715770447356529,0.9805352798053528,1415,178,1237
1.1,0.24,0.1,1.5,0.8335496048130234,0.8923076923076924,0.7715770447356529,0.9805352798053528,1415,178,1237
1.1,0.24,0.1,3.0,0.8335496048130234,0.8923076923076924,0.7715770447356529,0.9805352798053528,1415,178,1237
1.1,0.24,0.1,5.0,0.8335496048130234,0.8923076923076924,0.7715770447356529,0.9805352798053528,1415,178,1237
1.1,0.24,0.12,-1.0,0.82694349416067,0.8799450549450549,0.7690917306823317,0.9805352798053528,1478,183,1295
1.1,0.24,0.12,0.0,0.8268255278990209,0.8799450549450549,0.7688657930411207,0.9805352798053528,1481,185,1296
1.1,0.24,0.12,1.5,0.8268255278990209,0.8799450549450549,0.7688657930411207,0.9805352798053528,1481,185,1296
1.1,0.24,0.12,3.0,0.8268255278990209,0.8799450549450549,0.7688657930411207,0.9805352798053528,1481,185,1296
1.1,0.24,0.12,5.0,0.8268255278990209,0.8799450549450549,0.7688657930411207,0.9805352798053528,1481,185,1296
0.95,0.24,0.1,-1.0,0.8196295859384216,0.8766483516483516,0.7577948486217804,0.9805352798053528,1555,191,1364
0.95,0.24,0.1,0.0,0.8195116196767724,0.8766483516483516,0.7575689109805693,0.9805352798053528,1560,195,1365
0.95,0.24,0.1,1.5,0.8195116196767724,0.8766483516483516,0.7575689109805693,0.9805352798053528,1560,195,1365
0.95,0.24,0.1,3.0,0.8195116196767724,0.8766483516483516,0.7575689109805693,0.9805352798053528,1560,195,1365
0.95,0.24,0.1,5.0,0.8195116196767724,0.8766483516483516,0.7575689109805693,0.9805352798053528,1560,195,1365
1.1,0.24,0.16,-1.0,0.8191577208918249,0.8631868131868132,0.7679620424762765,0.9805352798053528,1554,193,1361
1.1,0.24,0.16,0.0,0.8190397546301758,0.8631868131868132,0.7677361048350655,0.9805352798053528,1558,196,1362
1.1,0.24,0.16,1.5,0.8190397546301758,0.8631868131868132,0.7677361048350655,0.9805352798053528,1558,196,1362
1.1,0.24,0.16,3.0,0.8190397546301758,0.8631868131868132,0.7677361048350655,0.9805352798053528,1558,196,1362
1.1,0.24,0.16,5.0,0.8190397546301758,0.8631868131868132,0.7677361048350655,0.9805352798053528,1558,196,1362
1.1,0.18,0.08,-1.0,0.8101922850064881,0.9085164835164835,0.7135110709444193,0.9805352798053528,1611,169,1442
0.95,0.24,0.12,-1.0,0.8098383862215406,0.8582417582417582,0.754179846362404,0.9805352798053528,1650,201,1449
0.95,0.24,0.12,0.0,0.8097204199598915,0.8582417582417582,0.753953908721193,0.9805352798053528,1655,205,1450
0.95,0.24,0.12,1.5,0.8097204199598915,0.8582417582417582,0.753953908721193,0.9805352798053528,1655,205,1450
0.95,0.24,0.12,3.0,0.8097204199598915,0.8582417582417582,0.753953908721193,0.9805352798053528,1655,205,1450
0.95,0.24,0.12,5.0,0.8097204199598915,0.8582417582417582,0.753953908721193,0.9805352798053528,1655,205,1450
1.1,0.18,0.08,0.0,0.8078329597735048,0.9085164835164835,0.7089923181201988,0.9805352798053528,1635,173,1462
1.1,0.18,0.08,1.5,0.8077149935118556,0.9085164835164835,0.7087663804789878,0.9805352798053528,1636,173,1463
1.1,0.18,0.08,3.0,0.8077149935118556,0.9085164835164835,0.7087663804789878,0.9805352798053528,1636,173,1463
1.1,0.18,0.08,5.0,0.8077149935118556,0.9085164835164835,0.7087663804789878,0.9805352798053528,1636,173,1463
0.95,0.24,0.16,-1.0,0.7981597263182729,0.8332417582417583,0.7523723452327158,0.9805352798053528,1763,212,1551
0.95,0.24,0.16,0.0,0.7980417600566238,0.8332417582417583,0.7521464075915048,0.9805352798053528,1769,217,1552
0.95,0.24,0.16,1.5,0.7980417600566238,0.8332417582417583,0.7521464075915048,0.9805352798053528,1769,217,1552
0.95,0.24,0.16,3.0,0.7980417600566238,0.8332417582417583,0.7521464075915048,0.9805352798053528,1769,217,1552
0.95,0.24,0.16,5.0,0.7980417600566238,0.8332417582417583,0.7521464075915048,0.9805352798053528,1769,217,1552
1.1,0.18,0.1,-1.0,0.7960363336085879,0.8837912087912088,0.7067329417080885,0.9805352798053528,1752,183,1569
0.95,0.18,0.08,-1.0,0.7953285360386929,0.8978021978021978,0.6938544961590601,0.9805352798053528,1757,181,1576
1.1,0.18,0.1,0.0,0.7935590421139554,0.8837912087912088,0.7019882512426571,0.9805352798053528,1778,188,1590
1.1,0.18,0.1,1.5,0.7934410758523063,0.8837912087912088,0.701762313601446,0.9805352798053528,1779,188,1591
1.1,0.18,0.1,3.0,0.7934410758523063,0.8837912087912088,0.701762313601446,0.9805352798053528,1779,188,1591
1.1,0.18,0.1,5.0,0.7934410758523063,0.8837912087912088,0.701762313601446,0.9805352798053528,1779,188,1591
0.95,0.18,0.08,0.0,0.7928512445440604,0.8978021978021978,0.6891098056936286,0.9805352798053528,1785,188,1597
0.95,0.18,0.08,1.5,0.7927332782824112,0.8978021978021978,0.6888838680524175,0.9805352798053528,1786,188,1598
0.95,0.18,0.08,3.0,0.7927332782824112,0.8978021978021978,0.6888838680524175,0.9805352798053528,1786,188,1598
0.95,0.18,0.08,5.0,0.7927332782824112,0.8978021978021978,0.6888838680524175,0.9805352798053528,1786,188,1598
1.1,0.18,0.12,-1.0,0.7880146278164445,0.8700549450549451,0.7026660641662901,0.9805352798053528,1832,190,1642
1.1,0.18,0.12,0.0,0.785537336321812,0.8700549450549451,0.6979213737008586,0.9805352798053528,1858,195,1663
1.1,0.18,0.12,1.5,0.7854193700601628,0.8700549450549451,0.6976954360596476,0.9805352798053528,1859,195,1664
1.1,0.18,0.12,3.0,0.7854193700601628,0.8700549450549451,0.6976954360596476,0.9805352798053528,1859,195,1664
1.1,0.18,0.12,5.0,0.7854193700601628,0.8700549450549451,0.6976954360596476,0.9805352798053528,1859,195,1664
1.1,0.18,0.16,-1.0,0.7784593606228618,0.8505494505494505,0.7004066877541798,0.9805352798053528,1927,200,1727
0.95,0.18,0.1,-1.0,0.7766898666981243,0.8653846153846154,0.6848169905106191,0.9805352798053528,1942,199,1743
1.1,0.18,0.16,0.0,0.7759820691282293,0.8505494505494505,0.6956619972887483,0.9805352798053528,1955,207,1748
1.1,0.18,0.16,1.5,0.7758641028665801,0.8505494505494505,0.6954360596475373,0.9805352798053528,1956,207,1749
1.1,0.18,0.16,3.0,0.7758641028665801,0.8505494505494505,0.6954360596475373,0.9805352798053528,1956,207,1749
1.1,0.18,0.16,5.0,0.7758641028665801,0.8505494505494505,0.6954360596475373,0.9805352798053528,1956,207,1749
0.95,0.18,0.1,0.0,0.7740946089418427,0.8653846153846154,0.6798463624039766,0.9805352798053528,1972,207,1765
0.95,0.18,0.1,1.5,0.7739766426801935,0.8653846153846154,0.6796204247627655,0.9805352798053528,1973,207,1766
0.95,0.18,0.1,3.0,0.7739766426801935,0.8653846153846154,0.6796204247627655,0.9805352798053528,1973,207,1766
0.95,0.18,0.1,5.0,0.7739766426801935,0.8653846153846154,0.6796204247627655,0.9805352798053528,1973,207,1766
0.95,0.18,0.12,-1.0,0.7651291730565059,0.8447802197802198,0.6796204247627655,0.9805352798053528,2055,209,1846
0.95,0.18,0.12,0.0,0.7625339153002242,0.8447802197802198,0.6746497966561229,0.9805352798053528,2085,217,1868
0.95,0.18,0.12,1.5,0.762415949038575,0.8447802197802198,0.6744238590149119,0.9805352798053528,2086,217,1869
0.95,0.18,0.12,3.0,0.762415949038575,0.8447802197802198,0.6744238590149119,0.9805352798053528,2086,217,1869
0.95,0.18,0.12,5.0,0.762415949038575,0.8447802197802198,0.6744238590149119,0.9805352798053528,2086,217,1869
0.95,0.18,0.16,-1.0,0.7510911879202548,0.8159340659340659,0.6764572977858111,0.9805352798053528,2192,220,1972
0.95,0.18,0.16,0.0,0.7484959301639731,0.8159340659340659,0.6714866696791686,0.9805352798053528,2224,230,1994
0.95,0.18,0.16,1.5,0.7483779639023239,0.8159340659340659,0.6712607320379576,0.9805352798053528,2225,230,1995
0.95,0.18,0.16,3.0,0.7483779639023239,0.8159340659340659,0.6712607320379576,0.9805352798053528,2225,230,1995
0.95,0.18,0.16,5.0,0.7483779639023239,0.8159340659340659,0.6712607320379576,0.9805352798053528,2225,230,1995
0.55,0.3,0.2,-1.0,0.8094844874365932,0.807967032967033,0.7950745594215997,0.9781021897810219,1659,208,1451
0.55,0.3,0.2,0.0,0.8094844874365932,0.807967032967033,0.7950745594215997,0.9781021897810219,1660,209,1451
0.55,0.3,0.2,1.5,0.8094844874365932,0.807967032967033,0.7950745594215997,0.9781021897810219,1660,209,1451
0.55,0.3,0.2,3.0,0.8094844874365932,0.807967032967033,0.7950745594215997,0.9781021897810219,1660,209,1451
0.55,0.3,0.2,5.0,0.8094844874365932,0.807967032967033,0.7950745594215997,0.9781021897810219,1660,209,1451
0.55,0.3,0.12,-1.0,0.8421611419134127,0.8807692307692307,0.7980117487573429,0.975669099756691,1357,190,1167
0.55,0.3,0.12,0.0,0.8421611419134127,0.8807692307692307,0.7980117487573429,0.975669099756691,1358,191,1167
0.55,0.3,0.12,1.5,0.8421611419134127,0.8807692307692307,0.7980117487573429,0.975669099756691,1358,191,1167
0.55,0.3,0.12,3.0,0.8421611419134127,0.8807692307692307,0.7980117487573429,0.975669099756691,1358,191,1167
0.55,0.3,0.12,5.0,0.8421611419134127,0.8807692307692307,0.7980117487573429,0.975669099756691,1358,191,1167
0.55,0.3,0.16,-1.0,0.8274153592072667,0.8486263736263736,0.7962042476276547,0.975669099756691,1497,203,1294
0.55,0.3,0.16,0.0,0.8274153592072667,0.8486263736263736,0.7962042476276547,0.975669099756691,1498,204,1294
0.55,0.3,0.16,1.5,0.8274153592072667,0.8486263736263736,0.7962042476276547,0.975669099756691,1498,204,1294
0.55,0.3,0.16,3.0,0.8274153592072667,0.8486263736263736,0.7962042476276547,0.975669099756691,1498,204,1294
0.55,0.3,0.16,5.0,0.8274153592072667,0.8486263736263736,0.7962042476276547,0.975669099756691,1498,204,1294
0.75,0.3,0.2,-1.0,0.8190397546301758,0.8288461538461539,0.7964301852688658,0.975669099756691,1569,203,1366
0.75,0.3,0.2,0.0,0.8190397546301758,0.8288461538461539,0.7964301852688658,0.975669099756691,1570,204,1366
0.75,0.3,0.2,1.5,0.8190397546301758,0.8288461538461539,0.7964301852688658,0.975669099756691,1570,204,1366
0.75,0.3,0.2,3.0,0.8190397546301758,0.8288461538461539,0.7964301852688658,0.975669099756691,1570,204,1366
0.75,0.3,0.2,5.0,0.8190397546301758,0.8288461538461539,0.7964301852688658,0.975669099756691,1570,204,1366
0.65,0.3,0.2,-1.0,0.8134953403326649,0.817032967032967,0.7955264347040217,0.975669099756691,1620,205,1415
0.65,0.3,0.2,0.0,0.8134953403326649,0.817032967032967,0.7955264347040217,0.975669099756691,1621,206,1415
0.65,0.3,0.2,1.5,0.8134953403326649,0.817032967032967,0.7955264347040217,0.975669099756691,1621,206,1415
0.65,0.3,0.2,3.0,0.8134953403326649,0.817032967032967,0.7955264347040217,0.975669099756691,1621,206,1415
0.65,0.3,0.2,5.0,0.8134953403326649,0.817032967032967,0.7955264347040217,0.975669099756691,1621,206,1415
0.55,0.3,0.08,-1.0,0.8597381148991389,0.9167582417582417,0.8023045639403524,0.9732360097323601,1172,162,1010
0.55,0.3,0.08,0.0,0.8597381148991389,0.9167582417582417,0.8023045639403524,0.9732360097323601,1173,163,1010
0.55,0.3,0.08,1.5,0.8597381148991389,0.9167582417582417,0.8023045639403524,0.9732360097323601,1173,163,1010
0.55,0.3,0.08,3.0,0.8597381148991389,0.9167582417582417,0.8023045639403524,0.9732360097323601,1173,163,1010
0.55,0.3,0.08,5.0,0.8597381148991389,0.9167582417582417,0.8023045639403524,0.9732360097323601,1173,163,1010
0.55,0.3,0.1,-1.0,0.8494750501356612,0.8958791208791209,0.7998192498870311,0.9732360097323601,1281,179,1102
0.55,0.3,0.1,0.0,0.8494750501356612,0.8958791208791209,0.7998192498870311,0.9732360097323601,1282,180,1102
0.55,0.3,0.1,1.5,0.8494750501356612,0.8958791208791209,0.7998192498870311,0.9732360097323601,1282,180,1102
0.55,0.3,0.1,3.0,0.8494750501356612,0.8958791208791209,0.7998192498870311,0.9732360097323601,1282,180,1102
0.55,0.3,0.1,5.0,0.8494750501356612,0.8958791208791209,0.7998192498870311,0.9732360097323601,1282,180,1102
0.75,0.3,0.12,-1.0,0.846525893594432,0.8898351648351648,0.7991414369633981,0.9732360097323601,1312,186,1126
0.75,0.3,0.12,0.0,0.846525893594432,0.8898351648351648,0.7991414369633981,0.9732360097323601,1313,187,1126
0.75,0.3,0.12,1.5,0.846525893594432,0.8898351648351648,0.7991414369633981,0.9732360097323601,1313,187,1126
0.75,0.3,0.12,3.0,0.846525893594432,0.8898351648351648,0.7991414369633981,0.9732360097323601,1313,187,1126
0.75,0.3,0.12,5.0,0.846525893594432,0.8898351648351648,0.7991414369633981,0.9732360097323601,1313,187,1126
0.65,0.3,0.12,-1.0,0.8435767370532028,0.8837912087912088,0.798463624039765,0.9732360097323601,1341,188,1153
0.65,0.3,0.12,0.0,0.8435767370532028,0.8837912087912088,0.798463624039765,0.9732360097323601,1342,189,1153
0.65,0.3,0.12,1.5,0.8435767370532028,0.8837912087912088,0.798463624039765,0.9732360097323601,1342,189,1153
0.65,0.3,0.12,3.0,0.8435767370532028,0.8837912087912088,0.798463624039765,0.9732360097323601,1342,189,1153
0.65,0.3,0.12,5.0,0.8435767370532028,0.8837912087912088,0.798463624039765,0.9732360097323601,1342,189,1153
0.75,0.3,0.16,-1.0,0.8340214698596201,0.862912087912088,0.7973339358337099,0.9732360097323601,1432,198,1234
0.75,0.3,0.16,0.0,0.8340214698596201,0.862912087912088,0.7973339358337099,0.9732360097323601,1433,199,1234
0.75,0.3,0.16,1.5,0.8340214698596201,0.862912087912088,0.7973339358337099,0.9732360097323601,1433,199,1234
0.75,0.3,0.16,3.0,0.8340214698596201,0.862912087912088,0.7973339358337099,0.9732360097323601,1433,199,1234
0.75,0.3,0.16,5.0,0.8340214698596201,0.862912087912088,0.7973339358337099,0.9732360097323601,1433,199,1234
0.65,0.3,0.16,-1.0,0.8303645157484959,0.8552197802197802,0.7966561229100768,0.9732360097323601,1467,200,1267
0.65,0.3,0.16,0.0,0.8303645157484959,0.8552197802197802,0.7966561229100768,0.9732360097323601,1468,201,1267
0.65,0.3,0.16,1.5,0.8303645157484959,0.8552197802197802,0.7966561229100768,0.9732360097323601,1468,201,1267
0.65,0.3,0.16,3.0,0.8303645157484959,0.8552197802197802,0.7966561229100768,0.9732360097323601,1468,201,1267
0.65,0.3,0.16,5.0,0.8303645157484959,0.8552197802197802,0.7966561229100768,0.9732360097323601,1468,201,1267
0.85,0.3,0.2,-1.0,0.8250560339742834,0.8392857142857143,0.7995933122458202,0.9732360097323601,1509,195,1314
0.85,0.3,0.2,0.0,0.8250560339742834,0.8392857142857143,0.7995933122458202,0.9732360097323601,1510,196,1314
0.85,0.3,0.2,1.5,0.8250560339742834,0.8392857142857143,0.7995933122458202,0.9732360097323601,1510,196,1314
0.85,0.3,0.2,3.0,0.8250560339742834,0.8392857142857143,0.7995933122458202,0.9732360097323601,1510,196,1314
0.85,0.3,0.2,5.0,0.8250560339742834,0.8392857142857143,0.7995933122458202,0.9732360097323601,1510,196,1314
0.85,0.3,0.08,-1.0,0.8637489677952106,0.9222527472527473,0.8056936285585179,0.9708029197080292,1127,155,972
0.85,0.3,0.08,0.0,0.8637489677952106,0.9222527472527473,0.8056936285585179,0.9708029197080292,1128,156,972
0.85,0.3,0.08,1.5,0.8637489677952106,0.9222527472527473,0.8056936285585179,0.9708029197080292,1128,156,972
0.85,0.3,0.08,3.0,0.8637489677952106,0.9222527472527473,0.8056936285585179,0.9708029197080292,1128,156,972
0.85,0.3,0.08,5.0,0.8637489677952106,0.9222527472527473,0.8056936285585179,0.9708029197080292,1128,156,972
0.75,0.3,0.08,-1.0,0.8613896425622272,0.920054945054945,0.8029823768639855,0.9708029197080292,1151,159,992
0.75,0.3,0.08,0.0,0.8613896425622272,0.920054945054945,0.8029823768639855,0.9708029197080292,1152,160,992
0.75,0.3,0.08,1.5,0.8613896425622272,0.920054945054945,0.8029823768639855,0.9708029197080292,1152,160,992
0.75,0.3,0.08,3.0,0.8613896425622272,0.920054945054945,0.8029823768639855,0.9708029197080292,1152,160,992
0.75,0.3,0.08,5.0,0.8613896425622272,0.920054945054945,0.8029823768639855,0.9708029197080292,1152,160,992
0.65,0.3,0.08,-1.0,0.859856081160788,0.917032967032967,0.8025305015815635,0.9708029197080292,1167,160,1007
0.65,0.3,0.08,0.0,0.859856081160788,0.917032967032967,0.8025305015815635,0.9708029197080292,1168,161,1007
0.65,0.3,0.08,1.5,0.859856081160788,0.917032967032967,0.8025305015815635,0.9708029197080292,1168,161,1007
0.65,0.3,0.08,3.0,0.859856081160788,0.917032967032967,0.8025305015815635,0.9708029197080292,1168,161,1007
0.65,0.3,0.08,5.0,0.859856081160788,0.917032967032967,0.8025305015815635,0.9708029197080292,1168,161,1007
0.85,0.3,0.1,-1.0,0.8553733632181196,0.9052197802197802,0.8036601897876187,0.9708029197080292,1219,171,1048
0.85,0.3,0.1,0.0,0.8553733632181196,0.9052197802197802,0.8036601897876187,0.9708029197080292,1220,172,1048
0.85,0.3,0.1,1.5,0.8553733632181196,0.9052197802197802,0.8036601897876187,0.9708029197080292,1220,172,1048
0.85,0.3,0.1,3.0,0.8553733632181196,0.9052197802197802,0.8036601897876187,0.9708029197080292,1220,172,1048
0.85,0.3,0.1,5.0,0.8553733632181196,0.9052197802197802,0.8036601897876187,0.9708029197080292,1220,172,1048
0.75,0.3,0.1,-1.0,0.8524242066768905,0.9019230769230769,0.8007230004518753,0.9708029197080292,1248,175,1073
0.75,0.3,0.1,0.0,0.8524242066768905,0.9019230769230769,0.8007230004518753,0.9708029197080292,1249,176,1073
0.75,0.3,0.1,1.5,0.8524242066768905,0.9019230769230769,0.8007230004518753,0.9708029197080292,1249,176,1073
0.75,0.3,0.1,3.0,0.8524242066768905,0.9019230769230769,0.8007230004518753,0.9708029197080292,1249,176,1073
0.75,0.3,0.1,5.0,0.8524242066768905,0.9019230769230769,0.8007230004518753,0.9708029197080292,1249,176,1073
0.65,0.3,0.1,-1.0,0.850064881443907,0.8972527472527473,0.8000451875282422,0.9708029197080292,1272,177,1095
0.65,0.3,0.1,0.0,0.850064881443907,0.8972527472527473,0.8000451875282422,0.9708029197080292,1273,178,1095
0.65,0.3,0.1,1.5,0.850064881443907,0.8972527472527473,0.8000451875282422,0.9708029197080292,1273,178,1095
0.65,0.3,0.1,3.0,0.850064881443907,0.8972527472527473,0.8000451875282422,0.9708029197080292,1273,178,1095
0.65,0.3,0.1,5.0,0.850064881443907,0.8972527472527473,0.8000451875282422,0.9708029197080292,1273,178,1095
0.85,0.3,0.12,-1.0,0.8497109826589595,0.893956043956044,0.8020786262991414,0.9708029197080292,1277,179,1098
0.85,0.3,0.12,0.0,0.8497109826589595,0.893956043956044,0.8020786262991414,0.9708029197080292,1278,180,1098
0.85,0.3,0.12,1.5,0.8497109826589595,0.893956043956044,0.8020786262991414,0.9708029197080292,1278,180,1098
0.85,0.3,0.12,3.0,0.8497109826589595,0.893956043956044,0.8020786262991414,0.9708029197080292,1278,180,1098
0.85,0.3,0.12,5.0,0.8497109826589595,0.893956043956044,0.8020786262991414,0.9708029197080292,1278,180,1098
1.1,0.3,0.2,-1.0,0.8480594549958712,0.8766483516483516,0.8131495707184817,0.9708029197080292,1275,169,1106
1.1,0.3,0.2,0.0,0.8480594549958712,0.8766483516483516,0.8131495707184817,0.9708029197080292,1276,170,1106
1.1,0.3,0.2,1.5,0.8480594549958712,0.8766483516483516,0.8131495707184817,0.9708029197080292,1276,170,1106
1.1,0.3,0.2,3.0,0.8480594549958712,0.8766483516483516,0.8131495707184817,0.9708029197080292,1276,170,1106
1.1,0.3,0.2,5.0,0.8480594549958712,0.8766483516483516,0.8131495707184817,0.9708029197080292,1276,170,1106
0.85,0.3,0.16,-1.0,0.8382682552789902,0.8692307692307693,0.8004970628106642,0.9708029197080292,1387,190,1197
0.85,0.3,0.16,0.0,0.8382682552789902,0.8692307692307693,0.8004970628106642,0.9708029197080292,1388,191,1197
0.85,0.3,0.16,1.5,0.8382682552789902,0.8692307692307693,0.8004970628106642,0.9708029197080292,1388,191,1197
0.85,0.3,0.16,3.0,0.8382682552789902,0.8692307692307693,0.8004970628106642,0.9708029197080292,1388,191,1197
0.85,0.3,0.16,5.0,0.8382682552789902,0.8692307692307693,0.8004970628106642,0.9708029197080292,1388,191,1197
0.95,0.3,0.2,-1.0,0.8330777397664269,0.8543956043956044,0.8027564392227745,0.9708029197080292,1429,186,1243
0.95,0.3,0.2,0.0,0.8330777397664269,0.8543956043956044,0.8027564392227745,0.9708029197080292,1430,187,1243
0.95,0.3,0.2,1.5,0.8330777397664269,0.8543956043956044,0.8027564392227745,0.9708029197080292,1430,187,1243
0.95,0.3,0.2,3.0,0.8330777397664269,0.8543956043956044,0.8027564392227745,0.9708029197080292,1430,187,1243
0.95,0.3,0.2,5.0,0.8330777397664269,0.8543956043956044,0.8027564392227745,0.9708029197080292,1430,187,1243
1.1,0.3,0.08,-1.0,0.8733042349887932,0.9304945054945055,0.8174423859014912,0.9683698296836983,1021,140,881
1.1,0.3,0.08,0.0,0.8733042349887932,0.9304945054945055,0.8174423859014912,0.9683698296836983,1022,141,881
1.1,0.3,0.08,1.5,0.8733042349887932,0.9304945054945055,0.8174423859014912,0.9683698296836983,1022,141,881
1.1,0.3,0.08,3.0,0.8733042349887932,0.9304945054945055,0.8174423859014912,0.9683698296836983,1022,141,881
1.1,0.3,0.08,5.0,0.8733042349887932,0.9304945054945055,0.8174423859014912,0.9683698296836983,1022,141,881
0.55,0.36,0.2,-1.0,0.8677598206912823,0.8826923076923077,0.8461364663352915,0.9683698296836983,1117,181,936
0.55,0.36,0.2,0.0,0.8677598206912823,0.8826923076923077,0.8461364663352915,0.9683698296836983,1117,181,936
0.55,0.36,0.2,1.5,0.8677598206912823,0.8826923076923077,0.8461364663352915,0.9683698296836983,1117,181,936
0.55,0.36,0.2,3.0,0.8677598206912823,0.8826923076923077,0.8461364663352915,0.9683698296836983,1117,181,936
0.55,0.36,0.2,5.0,0.8677598206912823,0.8826923076923077,0.8461364663352915,0.9683698296836983,1117,181,936
1.1,0.3,0.1,-1.0,0.8672879556446856,0.9186813186813186,0.815634884771803,0.9683698296836983,1087,151,936
1.1,0.3,0.1,0.0,0.8672879556446856,0.9186813186813186,0.815634884771803,0.9683698296836983,1088,152,936
1.1,0.3,0.1,1.5,0.8672879556446856,0.9186813186813186,0.815634884771803,0.9683698296836983,1088,152,936
1.1,0.3,0.1,3.0,0.8672879556446856,0.9186813186813186,0.815634884771803,0.9683698296836983,1088,152,936
1.1,0.3,0.1,5.0,0.8672879556446856,0.9186813186813186,0.815634884771803,0.9683698296836983,1088,152,936
0.95,0.3,0.08,-1.0,0.8665801580747906,0.9263736263736264,0.807953004970628,0.9683698296836983,1094,149,945
0.95,0.3,0.08,0.0,0.8665801580747906,0.9263736263736264,0.807953004970628,0.9683698296836983,1095,150,945
0.95,0.3,0.08,1.5,0.8665801580747906,0.9263736263736264,0.807953004970628,0.9683698296836983,1095,150,945
0.95,0.3,0.08,3.0,0.8665801580747906,0.9263736263736264,0.807953004970628,0.9683698296836983,1095,150,945
0.95,0.3,0.08,5.0,0.8665801580747906,0.9263736263736264,0.807953004970628,0.9683698296836983,1095,150,945
1.1,0.3,0.12,-1.0,0.8639849003185089,0.9123626373626373,0.8145051965657478,0.9683698296836983,1121,155,966
1.1,0.3,0.12,0.0,0.8639849003185089,0.9123626373626373,0.8145051965657478,0.9683698296836983,1122,156,966
1.1,0.3,0.12,1.5,0.8639849003185089,0.9123626373626373,0.8145051965657478,0.9683698296836983,1122,156,966
1.1,0.3,0.12,3.0,0.8639849003185089,0.9123626373626373,0.8145051965657478,0.9683698296836983,1122,156,966
1.1,0.3,0.12,5.0,0.8639849003185089,0.9123626373626373,0.8145051965657478,0.9683698296836983,1122,156,966
0.95,0.3,0.1,-1.0,0.8590303173292438,0.910989010989011,0.8061455038409399,0.9683698296836983,1178,164,1014
0.95,0.3,0.1,0.0,0.8590303173292438,0.910989010989011,0.8061455038409399,0.9683698296836983,1179,165,1014
0.95,0.3,0.1,1.5,0.8590303173292438,0.910989010989011,0.8061455038409399,0.9683698296836983,1179,165,1014
0.95,0.3,0.1,3.0,0.8590303173292438,0.910989010989011,0.8061455038409399,0.9683698296836983,1179,165,1014
0.95,0.3,0.1,5.0,0.8590303173292438,0.910989010989011,0.8061455038409399,0.9683698296836983,1179,165,1014
1.1,0.3,0.16,-1.0,0.8573787896661554,0.8980769230769231,0.8136014460009038,0.9683698296836983,1186,164,1022
1.1,0.3,0.16,0.0,0.8573787896661554,0.8980769230769231,0.8136014460009038,0.9683698296836983,1187,165,1022
1.1,0.3,0.16,1.5,0.8573787896661554,0.8980769230769231,0.8136014460009038,0.9683698296836983,1187,165,1022
1.1,0.3,0.16,3.0,0.8573787896661554,0.8980769230769231,0.8136014460009038,0.9683698296836983,1187,165,1022
1.1,0.3,0.16,5.0,0.8573787896661554,0.8980769230769231,0.8136014460009038,0.9683698296836983,1187,165,1022
0.95,0.3,0.12,-1.0,0.8539577680783296,0.9010989010989011,0.8045639403524627,0.9683698296836983,1230,171,1059
0.95,0.3,0.12,0.0,0.8539577680783296,0.9010989010989011,0.8045639403524627,0.9683698296836983,1231,172,1059
0.95,0.3,0.12,1.5,0.8539577680783296,0.9010989010989011,0.8045639403524627,0.9683698296836983,1231,172,1059
0.95,0.3,0.12,3.0,0.8539577680783296,0.9010989010989011,0.8045639403524627,0.9683698296836983,1231,172,1059
0.95,0.3,0.12,5.0,0.8539577680783296,0.9010989010989011,0.8045639403524627,0.9683698296836983,1231,172,1059
0.95,0.3,0.16,-1.0,0.8445204671463962,0.8807692307692307,0.8032083145051966,0.9683698296836983,1322,181,1141
0.95,0.3,0.16,0.0,0.8445204671463962,0.8807692307692307,0.8032083145051966,0.9683698296836983,1323,182,1141
0.95,0.3,0.16,1.5,0.8445204671463962,0.8807692307692307,0.8032083145051966,0.9683698296836983,1323,182,1141
0.95,0.3,0.16,3.0,0.8445204671463962,0.8807692307692307,0.8032083145051966,0.9683698296836983,1323,182,1141
0.95,0.3,0.16,5.0,0.8445204671463962,0.8807692307692307,0.8032083145051966,0.9683698296836983,1323,182,1141
0.55,0.36,0.12,-1.0,0.8859266249852542,0.9225274725274726,0.8483958427474018,0.9659367396593674,943,168,775
0.55,0.36,0.12,0.0,0.8859266249852542,0.9225274725274726,0.8483958427474018,0.9659367396593674,943,168,775
0.55,0.36,0.12,1.5,0.8859266249852542,0.9225274725274726,0.8483958427474018,0.9659367396593674,943,168,775
0.55,0.36,0.12,3.0,0.8859266249852542,0.9225274725274726,0.8483958427474018,0.9659367396593674,943,168,775
0.55,0.36,0.12,5.0,0.8859266249852542,0.9225274725274726,0.8483958427474018,0.9659367396593674,943,168,775
0.55,0.36,0.16,-1.0,0.8793205143329008,0.9090659340659341,0.8468142792589245,0.9659367396593674,1010,177,833
0.55,0.36,0.16,0.0,0.8793205143329008,0.9090659340659341,0.8468142792589245,0.9659367396593674,1010,177,833
0.55,0.36,0.16,1.5,0.8793205143329008,0.9090659340659341,0.8468142792589245,0.9659367396593674,1010,177,833
0.55,0.36,0.16,3.0,0.8793205143329008,0.9090659340659341,0.8468142792589245,0.9659367396593674,1010,177,833
0.55,0.36,0.16,5.0,0.8793205143329008,0.9090659340659341,0.8468142792589245,0.9659367396593674,1010,177,833
0.75,0.36,0.2,-1.0,0.8737761000353899,0.8961538461538462,0.8468142792589245,0.9659367396593674,1058,176,882
0.75,0.36,0.2,0.0,0.8737761000353899,0.8961538461538462,0.8468142792589245,0.9659367396593674,1058,176,882
0.75,0.36,0.2,1.5,0.8737761000353899,0.8961538461538462,0.8468142792589245,0.9659367396593674,1058,176,882
0.75,0.36,0.2,3.0,0.8737761000353899,0.8961538461538462,0.8468142792589245,0.9659367396593674,1058,176,882
0.75,0.36,0.2,5.0,0.8737761000353899,0.8961538461538462,0.8468142792589245,0.9659367396593674,1058,176,882
0.65,0.36,0.2,-1.0,0.8708269434941607,0.8898351648351648,0.8463624039765025,0.9659367396593674,1087,178,909
0.65,0.36,0.2,0.0,0.8708269434941607,0.8898351648351648,0.8463624039765025,0.9659367396593674,1087,178,909
0.65,0.36,0.2,1.5,0.8708269434941607,0.8898351648351648,0.8463624039765025,0.9659367396593674,1087,178,909
0.65,0.36,0.2,3.0,0.8708269434941607,0.8898351648351648,0.8463624039765025,0.9659367396593674,1087,178,909
0.65,0.36,0.2,5.0,0.8708269434941607,0.8898351648351648,0.8463624039765025,0.9659367396593674,1087,178,909
0.55,0.36,0.08,-1.0,0.8925327356376076,0.9365384615384615,0.8497514685946679,0.9635036496350365,861,146,715
0.55,0.36,0.08,0.0,0.8925327356376076,0.9365384615384615,0.8497514685946679,0.9635036496350365,861,146,715
0.55,0.36,0.08,1.5,0.8925327356376076,0.9365384615384615,0.8497514685946679,0.9635036496350365,861,146,715
0.55,0.36,0.08,3.0,0.8925327356376076,0.9365384615384615,0.8497514685946679,0.9635036496350365,861,146,715
0.55,0.36,0.08,5.0,0.8925327356376076,0.9365384615384615,0.8497514685946679,0.9635036496350365,861,146,715
0.55,0.36,0.1,-1.0,0.8897015453580276,0.9310439560439561,0.8488477180298237,0.9635036496350365,901,160,741
0.55,0.36,0.1,0.0,0.8897015453580276,0.9310439560439561,0.8488477180298237,0.9635036496350365,901,160,741
0.55,0.36,0.1,1.5,0.8897015453580276,0.9310439560439561,0.8488477180298237,0.9635036496350365,901,160,741
0.55,0.36,0.1,3.0,0.8897015453580276,0.9310439560439561,0.8488477180298237,0.9635036496350365,901,160,741
0.55,0.36,0.1,5.0,0.8897015453580276,0.9310439560439561,0.8488477180298237,0.9635036496350365,901,160,741
0.75,0.36,0.12,-1.0,0.8891117140497817,0.9293956043956044,0.8490736556710348,0.9635036496350365,909,164,745
0.75,0.36,0.12,0.0,0.8891117140497817,0.9293956043956044,0.8490736556710348,0.9635036496350365,909,164,745
0.75,0.36,0.12,1.5,0.8891117140497817,0.9293956043956044,0.8490736556710348,0.9635036496350365,909,164,745
0.75,0.36,0.12,3.0,0.8891117140497817,0.9293956043956044,0.8490736556710348,0.9635036496350365,909,164,745
0.75,0.36,0.12,5.0,0.8891117140497817,0.9293956043956044,0.8490736556710348,0.9635036496350365,909,164,745
1.1,0.36,0.2,-1.0,0.8880500176949393,0.9159340659340659,0.8581111613194758,0.9635036496350365,895,145,750
1.1,0.36,0.2,0.0,0.8880500176949393,0.9159340659340659,0.8581111613194758,0.9635036496350365,895,145,750
1.1,0.36,0.2,1.5,0.8880500176949393,0.9159340659340659,0.8581111613194758,0.9635036496350365,895,145,750
1.1,0.36,0.2,3.0,0.8880500176949393,0.9159340659340659,0.8581111613194758,0.9635036496350365,895,145,750
1.1,0.36,0.2,5.0,0.8880500176949393,0.9159340659340659,0.8581111613194758,0.9635036496350365,895,145,750
0.65,0.36,0.12,-1.0,0.8871062876017459,0.9252747252747253,0.8486217803886127,0.9635036496350365,930,166,764
0.65,0.36,0.12,0.0,0.8871062876017459,0.9252747252747253,0.8486217803886127,0.9635036496350365,930,166,764
0.65,0.36,0.12,1.5,0.8871062876017459,0.9252747252747253,0.8486217803886127,0.9635036496350365,930,166,764
0.65,0.36,0.12,3.0,0.8871062876017459,0.9252747252747253,0.8486217803886127,0.9635036496350365,930,166,764
0.65,0.36,0.12,5.0,0.8871062876017459,0.9252747252747253,0.8486217803886127,0.9635036496350365,930,166,764
0.75,0.36,0.16,-1.0,0.8836852660139201,0.9186813186813186,0.8474920921825576,0.9635036496350365,965,172,793
0.75,0.36,0.16,0.0,0.8836852660139201,0.9186813186813186,0.8474920921825576,0.9635036496350365,965,172,793
0.75,0.36,0.16,1.5,0.8836852660139201,0.9186813186813186,0.8474920921825576,0.9635036496350365,965,172,793
0.75,0.36,0.16,3.0,0.8836852660139201,0.9186813186813186,0.8474920921825576,0.9635036496350365,965,172,793
0.75,0.36,0.16,5.0,0.8836852660139201,0.9186813186813186,0.8474920921825576,0.9635036496350365,965,172,793
0.65,0.36,0.16,-1.0,0.8814439070425858,0.914010989010989,0.8470402169001355,0.9635036496350365,988,174,814
0.65,0.36,0.16,0.0,0.8814439070425858,0.914010989010989,0.8470402169001355,0.9635036496350365,988,174,814
0.65,0.36,0.16,1.5,0.8814439070425858,0.914010989010989,0.8470402169001355,0.9635036496350365,988,174,814
0.65,0.36,0.16,3.0,0.8814439070425858,0.914010989010989,0.8470402169001355,0.9635036496350365,988,174,814
0.65,0.36,0.16,5.0,0.8814439070425858,0.914010989010989,0.8470402169001355,0.9635036496350365,988,174,814
0.95,0.36,0.2,-1.0,0.8810900082576383,0.9085164835164835,0.850881156800723,0.9635036496350365,978,161,817
0.95,0.36,0.2,0.0,0.8810900082576383,0.9085164835164835,0.850881156800723,0.9635036496350365,978,161,817
0.95,0.36,0.2,1.5,0.8810900082576383,0.9085164835164835,0.850881156800723,0.9635036496350365,978,161,817
0.95,0.36,0.2,3.0,0.8810900082576383,0.9085164835164835,0.850881156800723,0.9635036496350365,978,161,817
0.95,0.36,0.2,5.0,0.8810900082576383,0.9085164835164835,0.850881156800723,0.9635036496350365,978,161,817
0.85,0.36,0.2,-1.0,0.8763713577916716,0.9005494505494506,0.8483958427474018,0.9635036496350365,1028,169,859
0.85,0.36,0.2,0.0,0.8763713577916716,0.9005494505494506,0.8483958427474018,0.9635036496350365,1028,169,859
0.85,0.36,0.2,1.5,0.8763713577916716,0.9005494505494506,0.8483958427474018,0.9635036496350365,1028,169,859
0.85,0.36,0.2,3.0,0.8763713577916716,0.9005494505494506,0.8483958427474018,0.9635036496350365,1028,169,859
0.85,0.36,0.2,5.0,0.8763713577916716,0.9005494505494506,0.8483958427474018,0.9635036496350365,1028,169,859
1.1,0.36,0.08,-1.0,0.9019700365695411,0.9456043956043956,0.8605964753727972,0.9610705596107056,750,125,625
1.1,0.36,0.08,0.0,0.9019700365695411,0.9456043956043956,0.8605964753727972,0.9610705596107056,750,125,625
1.1,0.36,0.08,1.5,0.9019700365695411,0.9456043956043956,0.8605964753727972,0.9610705596107056,750,125,625
1.1,0.36,0.08,3.0,0.9019700365695411,0.9456043956043956,0.8605964753727972,0.9610705596107056,750,125,625
1.1,0.36,0.08,5.0,0.9019700365695411,0.9456043956043956,0.8605964753727972,0.9610705596107056,750,125,625
1.1,0.36,0.1,-1.0,0.9004364751681019,0.9431318681318681,0.859692724807953,0.9610705596107056,772,133,639
1.1,0.36,0.1,0.0,0.9004364751681019,0.9431318681318681,0.859692724807953,0.9610705596107056,772,133,639
1.1,0.36,0.1,1.5,0.9004364751681019,0.9431318681318681,0.859692724807953,0.9610705596107056,772,133,639
1.1,0.36,0.1,3.0,0.9004364751681019,0.9431318681318681,0.859692724807953,0.9610705596107056,772,133,639
1.1,0.36,0.1,5.0,0.9004364751681019,0.9431318681318681,0.859692724807953,0.9610705596107056,772,133,639
1.1,0.36,0.12,-1.0,0.8990208800283119,0.9401098901098901,0.859466787166742,0.9610705596107056,788,136,652
1.1,0.36,0.12,0.0,0.8990208800283119,0.9401098901098901,0.859466787166742,0.9610705596107056,788,136,652
1.1,0.36,0.12,1.5,0.8990208800283119,0.9401098901098901,0.859466787166742,0.9610705596107056,788,136,652
1.1,0.36,0.12,3.0,0.8990208800283119,0.9401098901098901,0.859466787166742,0.9610705596107056,788,136,652
1.1,0.36,0.12,5.0,0.8990208800283119,0.9401098901098901,0.859466787166742,0.9610705596107056,788,136,652
0.95,0.36,0.08,-1.0,0.8976052848885219,0.9436813186813187,0.8538183461364663,0.9610705596107056,801,134,667
0.95,0.36,0.08,0.0,0.8976052848885219,0.9436813186813187,0.8538183461364663,0.9610705596107056,801,134,667
0.95,0.36,0.08,1.5,0.8976052848885219,0.9436813186813187,0.8538183461364663,0.9610705596107056,801,134,667
0.95,0.36,0.08,3.0,0.8976052848885219,0.9436813186813187,0.8538183461364663,0.9610705596107056,801,134,667
0.95,0.36,0.08,5.0,0.8976052848885219,0.9436813186813187,0.8538183461364663,0.9610705596107056,801,134,667
0.95,0.36,0.1,-1.0,0.8958357909637844,0.9406593406593406,0.8529145955716222,0.9610705596107056,830,146,684
0.95,0.36,0.1,0.0,0.8958357909637844,0.9406593406593406,0.8529145955716222,0.9610705596107056,830,146,684
0.95,0.36,0.1,1.5,0.8958357909637844,0.9406593406593406,0.8529145955716222,0.9610705596107056,830,146,684
0.95,0.36,0.1,3.0,0.8958357909637844,0.9406593406593406,0.8529145955716222,0.9610705596107056,830,146,684
0.95,0.36,0.1,5.0,0.8958357909637844,0.9406593406593406,0.8529145955716222,0.9610705596107056,830,146,684
0.85,0.36,0.08,-1.0,0.8951279933938894,0.9403846153846154,0.8517849073655671,0.9610705596107056,829,139,690
0.85,0.36,0.08,0.0,0.8951279933938894,0.9403846153846154,0.8517849073655671,0.9610705596107056,829,139,690
0.85,0.36,0.08,1.5,0.8951279933938894,0.9403846153846154,0.8517849073655671,0.9610705596107056,829,139,690
0.85,0.36,0.08,3.0,0.8951279933938894,0.9403846153846154,0.8517849073655671,0.9610705596107056,829,139,690
0.85,0.36,0.08,5.0,0.8951279933938894,0.9403846153846154,0.8517849073655671,0.9610705596107056,829,139,690
1.1,0.36,0.16,-1.0,0.8950100271322402,0.9318681318681319,0.8585630366018979,0.9610705596107056,827,141,686
1.1,0.36,0.16,0.0,0.8950100271322402,0.9318681318681319,0.8585630366018979,0.9610705596107056,827,141,686
1.1,0.36,0.16,1.5,0.8950100271322402,0.9318681318681319,0.8585630366018979,0.9610705596107056,827,141,686
1.1,0.36,0.16,3.0,0.8950100271322402,0.9318681318681319,0.8585630366018979,0.9610705596107056,827,141,686
1.1,0.36,0.16,5.0,0.8950100271322402,0.9318681318681319,0.8585630366018979,0.9610705596107056,827,141,686
0.95,0.36,0.12,-1.0,0.8938303645157485,0.9362637362637363,0.8526886579304112,0.9610705596107056,853,151,702
0.95,0.36,0.12,0.0,0.8938303645157485,0.9362637362637363,0.8526886579304112,0.9610705596107056,853,151,702
0.95,0.36,0.12,1.5,0.8938303645157485,0.9362637362637363,0.8526886579304112,0.9610705596107056,853,151,702
0.95,0.36,0.12,3.0,0.8938303645157485,0.9362637362637363,0.8526886579304112,0.9610705596107056,853,151,702
0.95,0.36,0.12,5.0,0.8938303645157485,0.9362637362637363,0.8526886579304112,0.9610705596107056,853,151,702
0.75,0.36,0.08,-1.0,0.8937123982540993,0.939010989010989,0.85020334387709,0.9610705596107056,845,143,702
0.75,0.36,0.08,0.0,0.8937123982540993,0.939010989010989,0.85020334387709,0.9610705596107056,845,143,702
0.75,0.36,0.08,1.5,0.8937123982540993,0.939010989010989,0.85020334387709,0.9610705596107056,845,143,702
0.75,0.36,0.08,3.0,0.8937123982540993,0.939010989010989,0.85020334387709,0.9610705596107056,845,143,702
0.75,0.36,0.08,5.0,0.8937123982540993,0.939010989010989,0.85020334387709,0.9610705596107056,845,143,702
0.85,0.36,0.1,-1.0,0.8932405332075026,0.9370879120879121,0.850881156800723,0.9610705596107056,860,152,708
0.85,0.36,0.1,0.0,0.8932405332075026,0.9370879120879121,0.850881156800723,0.9610705596107056,860,152,708
0.85,0.36,0.1,1.5,0.8932405332075026,0.9370879120879121,0.850881156800723,0.9610705596107056,860,152,708
0.85,0.36,0.1,3.0,0.8932405332075026,0.9370879120879121,0.850881156800723,0.9610705596107056,860,152,708
0.85,0.36,0.1,5.0,0.8932405332075026,0.9370879120879121,0.850881156800723,0.9610705596107056,860,152,708
0.65,0.36,0.08,-1.0,0.8924147693759584,0.9365384615384615,0.8497514685946679,0.9610705596107056,859,144,715
0.65,0.36,0.08,0.0,0.8924147693759584,0.9365384615384615,0.8497514685946679,0.9610705596107056,859,144,715
0.65,0.36,0.08,1.5,0.8924147693759584,0.9365384615384615,0.8497514685946679,0.9610705596107056,859,144,715
0.65,0.36,0.08,3.0,0.8924147693759584,0.9365384615384615,0.8497514685946679,0.9610705596107056,859,144,715
0.65,0.36,0.08,5.0,0.8924147693759584,0.9365384615384615,0.8497514685946679,0.9610705596107056,859,144,715
0.75,0.36,0.1,-1.0,0.8917069718060635,0.9354395604395604,0.8492995933122458,0.9610705596107056,877,156,721
0.75,0.36,0.1,0.0,0.8917069718060635,0.9354395604395604,0.8492995933122458,0.9610705596107056,877,156,721
0.75,0.36,0.1,1.5,0.8917069718060635,0.9354395604395604,0.8492995933122458,0.9610705596107056,877,156,721
0.75,0.36,0.1,3.0,0.8917069718060635,0.9354395604395604,0.8492995933122458,0.9610705596107056,877,156,721
0.75,0.36,0.1,5.0,0.8917069718060635,0.9354395604395604,0.8492995933122458,0.9610705596107056,877,156,721
0.85,0.36,0.12,-1.0,0.8907632417128701,0.9315934065934066,0.8506552191595119,0.9610705596107056,888,158,730
0.85,0.36,0.12,0.0,0.8907632417128701,0.9315934065934066,0.8506552191595119,0.9610705596107056,888,158,730
0.85,0.36,0.12,1.5,0.8907632417128701,0.9315934065934066,0.8506552191595119,0.9610705596107056,888,158,730
0.85,0.36,0.12,3.0,0.8907632417128701,0.9315934065934066,0.8506552191595119,0.9610705596107056,888,158,730
0.85,0.36,0.12,5.0,0.8907632417128701,0.9315934065934066,0.8506552191595119,0.9610705596107056,888,158,730
0.65,0.36,0.1,-1.0,0.8900554441429751,0.9321428571428572,0.8488477180298237,0.9610705596107056,895,158,737
0.65,0.36,0.1,0.0,0.8900554441429751,0.9321428571428572,0.8488477180298237,0.9610705596107056,895,158,737
0.65,0.36,0.1,1.5,0.8900554441429751,0.9321428571428572,0.8488477180298237,0.9610705596107056,895,158,737
0.65,0.36,0.1,3.0,0.8900554441429751,0.9321428571428572,0.8488477180298237,0.9610705596107056,895,158,737
0.65,0.36,0.1,5.0,0.8900554441429751,0.9321428571428572,0.8488477180298237,0.9610705596107056,895,158,737
0.95,0.36,0.16,-1.0,0.8892296803114309,0.9271978021978022,0.851333032083145,0.9610705596107056,900,157,743
0.95,0.36,0.16,0.0,0.8892296803114309,0.9271978021978022,0.851333032083145,0.9610705596107056,900,157,743
0.95,0.36,0.16,1.5,0.8892296803114309,0.9271978021978022,0.851333032083145,0.9610705596107056,900,157,743
0.95,0.36,0.16,3.0,0.8892296803114309,0.9271978021978022,0.851333032083145,0.9610705596107056,900,157,743
0.95,0.36,0.16,5.0,0.8892296803114309,0.9271978021978022,0.851333032083145,0.9610705596107056,900,157,743
0.85,0.36,0.16,-1.0,0.8855727262003067,0.9214285714285714,0.8490736556710348,0.9610705596107056,941,165,776
0.85,0.36,0.16,0.0,0.8855727262003067,0.9214285714285714,0.8490736556710348,0.9610705596107056,941,165,776
0.85,0.36,0.16,1.5,0.8855727262003067,0.9214285714285714,0.8490736556710348,0.9610705596107056,941,165,776
0.85,0.36,0.16,3.0,0.8855727262003067,0.9214285714285714,0.8490736556710348,0.9610705596107056,941,165,776
0.85,0.36,0.16,5.0,0.8855727262003067,0.9214285714285714,0.8490736556710348,0.9610705596107056,941,165,776
0.55,0.44,0.12,-1.0,0.9191931107703197,0.9453296703296703,0.895390872119295,0.9440389294403893,591,118,473
0.55,0.44,0.12,0.0,0.9191931107703197,0.9453296703296703,0.895390872119295,0.9440389294403893,591,118,473
0.55,0.44,0.12,1.5,0.9191931107703197,0.9453296703296703,0.895390872119295,0.9440389294403893,591,118,473
0.55,0.44,0.12,3.0,0.9191931107703197,0.9453296703296703,0.895390872119295,0.9440389294403893,591,118,473
0.55,0.44,0.12,5.0,0.9191931107703197,0.9453296703296703,0.895390872119295,0.9440389294403893,591,118,473
0.55,0.44,0.16,-1.0,0.9170697180606346,0.9409340659340659,0.8949389968368731,0.9440389294403893,613,121,492
0.55,0.44,0.16,0.0,0.9170697180606346,0.9409340659340659,0.8949389968368731,0.9440389294403893,613,121,492
0.55,0.44,0.16,1.5,0.9170697180606346,0.9409340659340659,0.8949389968368731,0.9440389294403893,613,121,492
0.55,0.44,0.16,3.0,0.9170697180606346,0.9409340659340659,0.8949389968368731,0.9440389294403893,613,121,492
0.55,0.44,0.16,5.0,0.9170697180606346,0.9409340659340659,0.8949389968368731,0.9440389294403893,613,121,492
0.55,0.44,0.2,-1.0,0.9118792025480712,0.9293956043956044,0.894487121554451,0.9440389294403893,662,123,539
0.55,0.44,0.2,0.0,0.9118792025480712,0.9293956043956044,0.894487121554451,0.9440389294403893,662,123,539
0.55,0.44,0.2,1.5,0.9118792025480712,0.9293956043956044,0.894487121554451,0.9440389294403893,662,123,539
0.55,0.44,0.2,3.0,0.9118792025480712,0.9293956043956044,0.894487121554451,0.9440389294403893,662,123,539
0.55,0.44,0.2,5.0,0.9118792025480712,0.9293956043956044,0.894487121554451,0.9440389294403893,662,123,539
0.55,0.44,0.08,-1.0,0.9220243010498997,0.9508241758241758,0.8965205603253502,0.9416058394160584,548,102,446
0.55,0.44,0.08,0.0,0.9220243010498997,0.9508241758241758,0.8965205603253502,0.9416058394160584,548,102,446
0.55,0.44,0.08,1.5,0.9220243010498997,0.9508241758241758,0.8965205603253502,0.9416058394160584,548,102,446
0.55,0.44,0.08,3.0,0.9220243010498997,0.9508241758241758,0.8965205603253502,0.9416058394160584,548,102,446
0.55,0.44,0.08,5.0,0.9220243010498997,0.9508241758241758,0.8965205603253502,0.9416058394160584,548,102,446
0.75,0.44,0.12,-1.0,0.9207266721717589,0.9483516483516483,0.8960686850429281,0.9416058394160584,573,116,457
0.75,0.44,0.12,0.0,0.9207266721717589,0.9483516483516483,0.8960686850429281,0.9416058394160584,573,116,457
0.75,0.44,0.12,1.5,0.9207266721717589,0.9483516483516483,0.8960686850429281,0.9416058394160584,573,116,457
0.75,0.44,0.12,3.0,0.9207266721717589,0.9483516483516483,0.8960686850429281,0.9416058394160584,573,116,457
0.75,0.44,0.12,5.0,0.9207266721717589,0.9483516483516483,0.8960686850429281,0.9416058394160584,573,116,457
0.55,0.44,0.1,-1.0,0.9206087059101097,0.9483516483516483,0.8958427474017171,0.9416058394160584,572,113,459
0.55,0.44,0.1,0.0,0.9206087059101097,0.9483516483516483,0.8958427474017171,0.9416058394160584,572,113,459
0.55,0.44,0.1,1.5,0.9206087059101097,0.9483516483516483,0.8958427474017171,0.9416058394160584,572,113,459
0.55,0.44,0.1,3.0,0.9206087059101097,0.9483516483516483,0.8958427474017171,0.9416058394160584,572,113,459
0.55,0.44,0.1,5.0,0.9206087059101097,0.9483516483516483,0.8958427474017171,0.9416058394160584,572,113,459
0.65,0.44,0.12,-1.0,0.9199009083402147,0.9469780219780219,0.8956168097605061,0.9416058394160584,583,117,466
0.65,0.44,0.12,0.0,0.9199009083402147,0.9469780219780219,0.8956168097605061,0.9416058394160584,583,117,466
0.65,0.44,0.12,1.5,0.9199009083402147,0.9469780219780219,0.8956168097605061,0.9416058394160584,583,117,466
0.65,0.44,0.12,3.0,0.9199009083402147,0.9469780219780219,0.8956168097605061,0.9416058394160584,583,117,466
0.65,0.44,0.12,5.0,0.9199009083402147,0.9469780219780219,0.8956168097605061,0.9416058394160584,583,117,466
0.75,0.44,0.16,-1.0,0.9189571782470214,0.9447802197802198,0.8956168097605061,0.9416058394160584,592,119,473
0.75,0.44,0.16,0.0,0.9189571782470214,0.9447802197802198,0.8956168097605061,0.9416058394160584,592,119,473
0.75,0.44,0.16,1.5,0.9189571782470214,0.9447802197802198,0.8956168097605061,0.9416058394160584,592,119,473
0.75,0.44,0.16,3.0,0.9189571782470214,0.9447802197802198,0.8956168097605061,0.9416058394160584,592,119,473
0.75,0.44,0.16,5.0,0.9189571782470214,0.9447802197802198,0.8956168097605061,0.9416058394160584,592,119,473
0.65,0.44,0.16,-1.0,0.9181314144154772,0.9434065934065934,0.8951649344780841,0.9416058394160584,602,120,482
0.65,0.44,0.16,0.0,0.9181314144154772,0.9434065934065934,0.8951649344780841,0.9416058394160584,602,120,482
0.65,0.44,0.16,1.5,0.9181314144154772,0.9434065934065934,0.8951649344780841,0.9416058394160584,602,120,482
0.65,0.44,0.16,3.0,0.9181314144154772,0.9434065934065934,0.8951649344780841,0.9416058394160584,602,120,482
0.65,0.44,0.16,5.0,0.9181314144154772,0.9434065934065934,0.8951649344780841,0.9416058394160584,602,120,482
0.75,0.44,0.2,-1.0,0.9147103928276513,0.9354395604395604,0.8951649344780841,0.9416058394160584,633,121,512
0.75,0.44,0.2,0.0,0.9147103928276513,0.9354395604395604,0.8951649344780841,0.9416058394160584,633,121,512
0.75,0.44,0.2,1.5,0.9147103928276513,0.9354395604395604,0.8951649344780841,0.9416058394160584,633,121,512
0.75,0.44,0.2,3.0,0.9147103928276513,0.9354395604395604,0.8951649344780841,0.9416058394160584,633,121,512
0.75,0.44,0.2,5.0,0.9147103928276513,0.9354395604395604,0.8951649344780841,0.9416058394160584,633,121,512
0.65,0.44,0.2,-1.0,0.9136486964728088,0.9335164835164835,0.894713059195662,0.9416058394160584,645,122,523
0.65,0.44,0.2,0.0,0.9136486964728088,0.9335164835164835,0.894713059195662,0.9416058394160584,645,122,523
0.65,0.44,0.2,1.5,0.9136486964728088,0.9335164835164835,0.894713059195662,0.9416058394160584,645,122,523
0.65,0.44,0.2,3.0,0.9136486964728088,0.9335164835164835,0.894713059195662,0.9416058394160584,645,122,523
0.65,0.44,0.2,5.0,0.9136486964728088,0.9335164835164835,0.894713059195662,0.9416058394160584,645,122,523
1.1,0.44,0.08,-1.0,0.9278046478707089,0.9552197802197803,0.9042024401265251,0.9391727493917275,475,86,389
1.1,0.44,0.08,0.0,0.9278046478707089,0.9552197802197803,0.9042024401265251,0.9391727493917275,475,86,389
1.1,0.44,0.08,1.5,0.9278046478707089,0.9552197802197803,0.9042024401265251,0.9391727493917275,475,86,389
1.1,0.44,0.08,3.0,0.9278046478707089,0.9552197802197803,0.9042024401265251,0.9391727493917275,475,86,389
1.1,0.44,0.08,5.0,0.9278046478707089,0.9552197802197803,0.9042024401265251,0.9391727493917275,475,86,389
1.1,0.44,0.1,-1.0,0.9269788840391648,0.9541208791208792,0.903524627202892,0.9391727493917275,488,92,396
1.1,0.44,0.1,0.0,0.9269788840391648,0.9541208791208792,0.903524627202892,0.9391727493917275,488,92,396
1.1,0.44,0.1,1.5,0.9269788840391648,0.9541208791208792,0.903524627202892,0.9391727493917275,488,92,396
1.1,0.44,0.1,3.0,0.9269788840391648,0.9541208791208792,0.903524627202892,0.9391727493917275,488,92,396
1.1,0.44,0.1,5.0,0.9269788840391648,0.9541208791208792,0.903524627202892,0.9391727493917275,488,92,396
1.1,0.44,0.12,-1.0,0.9262710864692698,0.9527472527472527,0.903298689561681,0.9391727493917275,497,94,403
1.1,0.44,0.12,0.0,0.9262710864692698,0.9527472527472527,0.903298689561681,0.9391727493917275,497,94,403
1.1,0.44,0.12,1.5,0.9262710864692698,0.9527472527472527,0.903298689561681,0.9391727493917275,497,94,403
1.1,0.44,0.12,3.0,0.9262710864692698,0.9527472527472527,0.903298689561681,0.9391727493917275,497,94,403
1.1,0.44,0.12,5.0,0.9262710864692698,0.9527472527472527,0.903298689561681,0.9391727493917275,497,94,403
1.1,0.44,0.16,-1.0,0.9249734575911289,0.95,0.90307275192047,0.9391727493917275,509,95,414
1.1,0.44,0.16,0.0,0.9249734575911289,0.95,0.90307275192047,0.9391727493917275,509,95,414
1.1,0.44,0.16,1.5,0.9249734575911289,0.95,0.90307275192047,0.9391727493917275,509,95,414
1.1,0.44,0.16,3.0,0.9249734575911289,0.95,0.90307275192047,0.9391727493917275,509,95,414
1.1,0.44,0.16,5.0,0.9249734575911289,0.95,0.90307275192047,0.9391727493917275,509,95,414
0.95,0.44,0.08,-1.0,0.9245015925445322,0.9541208791208792,0.8987799367374605,0.9391727493917275,515,94,421
0.95,0.44,0.08,0.0,0.9245015925445322,0.9541208791208792,0.8987799367374605,0.9391727493917275,515,94,421
0.95,0.44,0.08,1.5,0.9245015925445322,0.9541208791208792,0.8987799367374605,0.9391727493917275,515,94,421
0.95,0.44,0.08,3.0,0.9245015925445322,0.9541208791208792,0.8987799367374605,0.9391727493917275,515,94,421
0.95,0.44,0.08,5.0,0.9245015925445322,0.9541208791208792,0.8987799367374605,0.9391727493917275,515,94,421
0.95,0.44,0.1,-1.0,0.923675828712988,0.953021978021978,0.8981021238138274,0.9391727493917275,533,104,429
0.95,0.44,0.1,0.0,0.923675828712988,0.953021978021978,0.8981021238138274,0.9391727493917275,533,104,429
0.95,0.44,0.1,1.5,0.923675828712988,0.953021978021978,0.8981021238138274,0.9391727493917275,533,104,429
0.95,0.44,0.1,3.0,0.923675828712988,0.953021978021978,0.8981021238138274,0.9391727493917275,533,104,429
0.95,0.44,0.1,5.0,0.923675828712988,0.953021978021978,0.8981021238138274,0.9391727493917275,533,104,429
0.85,0.44,0.08,-1.0,0.9232039636663915,0.9527472527472527,0.8974243108901943,0.9391727493917275,530,97,433
0.85,0.44,0.08,0.0,0.9232039636663915,0.9527472527472527,0.8974243108901943,0.9391727493917275,530,97,433
0.85,0.44,0.08,1.5,0.9232039636663915,0.9527472527472527,0.8974243108901943,0.9391727493917275,530,97,433
0.85,0.44,0.08,3.0,0.9232039636663915,0.9527472527472527,0.8974243108901943,0.9391727493917275,530,97,433
0.85,0.44,0.08,5.0,0.9232039636663915,0.9527472527472527,0.8974243108901943,0.9391727493917275,530,97,433
0.95,0.44,0.12,-1.0,0.9228500648814439,0.9513736263736263,0.8978761861726163,0.9391727493917275,544,107,437
0.95,0.44,0.12,0.0,0.9228500648814439,0.9513736263736263,0.8978761861726163,0.9391727493917275,544,107,437
0.95,0.44,0.12,1.5,0.9228500648814439,0.9513736263736263,0.8978761861726163,0.9391727493917275,544,107,437
0.95,0.44,0.12,3.0,0.9228500648814439,0.9513736263736263,0.8978761861726163,0.9391727493917275,544,107,437
0.95,0.44,0.12,5.0,0.9228500648814439,0.9513736263736263,0.8978761861726163,0.9391727493917275,544,107,437
0.75,0.44,0.08,-1.0,0.9226141323581456,0.9519230769230769,0.8969724356077723,0.9391727493917275,538,100,438
0.75,0.44,0.08,0.0,0.9226141323581456,0.9519230769230769,0.8969724356077723,0.9391727493917275,538,100,438
0.75,0.44,0.08,1.5,0.9226141323581456,0.9519230769230769,0.8969724356077723,0.9391727493917275,538,100,438
0.75,0.44,0.08,3.0,0.9226141323581456,0.9519230769230769,0.8969724356077723,0.9391727493917275,538,100,438
0.75,0.44,0.08,5.0,0.9226141323581456,0.9519230769230769,0.8969724356077723,0.9391727493917275,538,100,438
0.85,0.44,0.1,-1.0,0.9223781998348473,0.9516483516483516,0.8967464979665613,0.9391727493917275,549,108,441
0.85,0.44,0.1,0.0,0.9223781998348473,0.9516483516483516,0.8967464979665613,0.9391727493917275,549,108,441
0.85,0.44,0.1,1.5,0.9223781998348473,0.9516483516483516,0.8967464979665613,0.9391727493917275,549,108,441
0.85,0.44,0.1,3.0,0.9223781998348473,0.9516483516483516,0.8967464979665613,0.9391727493917275,549,108,441
0.85,0.44,0.1,5.0,0.9223781998348473,0.9516483516483516,0.8967464979665613,0.9391727493917275,549,108,441
1.1,0.44,0.2,-1.0,0.9223781998348473,0.9442307692307692,0.902846814279259,0.9391727493917275,536,97,439
1.1,0.44,0.2,0.0,0.9223781998348473,0.9442307692307692,0.902846814279259,0.9391727493917275,536,97,439
1.1,0.44,0.2,1.5,0.9223781998348473,0.9442307692307692,0.902846814279259,0.9391727493917275,536,97,439
1.1,0.44,0.2,3.0,0.9223781998348473,0.9442307692307692,0.902846814279259,0.9391727493917275,536,97,439
1.1,0.44,0.2,5.0,0.9223781998348473,0.9442307692307692,0.902846814279259,0.9391727493917275,536,97,439
0.65,0.44,0.08,-1.0,0.9219063347882506,0.9508241758241758,0.8965205603253502,0.9391727493917275,547,101,446
0.65,0.44,0.08,0.0,0.9219063347882506,0.9508241758241758,0.8965205603253502,0.9391727493917275,547,101,446
0.65,0.44,0.08,1.5,0.9219063347882506,0.9508241758241758,0.8965205603253502,0.9391727493917275,547,101,446
0.65,0.44,0.08,3.0,0.9219063347882506,0.9508241758241758,0.8965205603253502,0.9391727493917275,547,101,446
0.65,0.44,0.08,5.0,0.9219063347882506,0.9508241758241758,0.8965205603253502,0.9391727493917275,547,101,446
0.75,0.44,0.1,-1.0,0.9216704022649522,0.9505494505494505,0.8962946226841392,0.9391727493917275,558,111,447
0.75,0.44,0.1,0.0,0.9216704022649522,0.9505494505494505,0.8962946226841392,0.9391727493917275,558,111,447
0.75,0.44,0.1,1.5,0.9216704022649522,0.9505494505494505,0.8962946226841392,0.9391727493917275,558,111,447
0.75,0.44,0.1,3.0,0.9216704022649522,0.9505494505494505,0.8962946226841392,0.9391727493917275,558,111,447
0.75,0.44,0.1,5.0,0.9216704022649522,0.9505494505494505,0.8962946226841392,0.9391727493917275,558,111,447
0.95,0.44,0.16,-1.0,0.9214344697416539,0.9486263736263736,0.8974243108901943,0.9391727493917275,559,109,450
0.95,0.44,0.16,0.0,0.9214344697416539,0.9486263736263736,0.8974243108901943,0.9391727493917275,559,109,450
0.95,0.44,0.16,1.5,0.9214344697416539,0.9486263736263736,0.8974243108901943,0.9391727493917275,559,109,450
0.95,0.44,0.16,3.0,0.9214344697416539,0.9486263736263736,0.8974243108901943,0.9391727493917275,559,109,450
0.95,0.44,0.16,5.0,0.9214344697416539,0.9486263736263736,0.8974243108901943,0.9391727493917275,559,109,450
0.85,0.44,0.12,-1.0,0.9213165034800047,0.9494505494505494,0.8965205603253502,0.9391727493917275,563,112,451
0.85,0.44,0.12,0.0,0.9213165034800047,0.9494505494505494,0.8965205603253502,0.9391727493917275,563,112,451
0.85,0.44,0.12,1.5,0.9213165034800047,0.9494505494505494,0.8965205603253502,0.9391727493917275,563,112,451
0.85,0.44,0.12,3.0,0.9213165034800047,0.9494505494505494,0.8965205603253502,0.9391727493917275,563,112,451
0.85,0.44,0.12,5.0,0.9213165034800047,0.9494505494505494,0.8965205603253502,0.9391727493917275,563,112,451
0.65,0.44,0.1,-1.0,0.920844638433408,0.9491758241758241,0.8958427474017171,0.9391727493917275,568,112,456
0.65,0.44,0.1,0.0,0.920844638433408,0.9491758241758241,0.8958427474017171,0.9391727493917275,568,112,456
0.65,0.44,0.1,1.5,0.920844638433408,0.9491758241758241,0.8958427474017171,0.9391727493917275,568,112,456
0.65,0.44,0.1,3.0,0.920844638433408,0.9491758241758241,0.8958427474017171,0.9391727493917275,568,112,456
0.65,0.44,0.1,5.0,0.920844638433408,0.9491758241758241,0.8958427474017171,0.9391727493917275,568,112,456
0.85,0.44,0.16,-1.0,0.9196649758169163,0.9461538461538461,0.8960686850429281,0.9391727493917275,581,115,466
0.85,0.44,0.16,0.0,0.9196649758169163,0.9461538461538461,0.8960686850429281,0.9391727493917275,581,115,466
0.85,0.44,0.16,1.5,0.9196649758169163,0.9461538461538461,0.8960686850429281,0.9391727493917275,581,115,466
0.85,0.44,0.16,3.0,0.9196649758169163,0.9461538461538461,0.8960686850429281,0.9391727493917275,581,115,466
0.85,0.44,0.16,5.0,0.9196649758169163,0.9461538461538461,0.8960686850429281,0.9391727493917275,581,115,466
0.95,0.44,0.2,-1.0,0.9181314144154772,0.9412087912087912,0.8971983732489833,0.9391727493917275,592,111,481
0.95,0.44,0.2,0.0,0.9181314144154772,0.9412087912087912,0.8971983732489833,0.9391727493917275,592,111,481
0.95,0.44,0.2,1.5,0.9181314144154772,0.9412087912087912,0.8971983732489833,0.9391727493917275,592,111,481
0.95,0.44,0.2,3.0,0.9181314144154772,0.9412087912087912,0.8971983732489833,0.9391727493917275,592,111,481
0.95,0.44,0.2,5.0,0.9181314144154772,0.9412087912087912,0.8971983732489833,0.9391727493917275,592,111,481
0.85,0.44,0.2,-1.0,0.9156541229208447,0.9373626373626374,0.8956168097605061,0.9391727493917275,620,117,503
0.85,0.44,0.2,0.0,0.9156541229208447,0.9373626373626374,0.8956168097605061,0.9391727493917275,620,117,503
0.85,0.44,0.2,1.5,0.9156541229208447,0.9373626373626374,0.8956168097605061,0.9391727493917275,620,117,503
0.85,0.44,0.2,3.0,0.9156541229208447,0.9373626373626374,0.8956168097605061,0.9391727493917275,620,117,503
0.85,0.44,0.2,5.0,0.9156541229208447,0.9373626373626374,0.8956168097605061,0.9391727493917275,620,117,503
